2017-12-31,3248474000000,,--,310212000000,9.55%,52886000000,1.63%,,--,,--,,--,8036000000,0.25%,4701000000,0.14%,,--,,--,3026420000000,,--,,--,000001
2017-09-30,1018381990533.1,899748874013.21,88.35%,94352631304.03,9.26%,1302107882.27,0.13%,550572755680.26,54.06%,105270074361.66,10.34%,118633116519.89,11.65%,6857390560.1,0.67%,1412466458.4,0.14%,1499145189.69,0.15%,,--,850656698669.71,743441071722.2,87.40%,107215626947.51,12.60%,000002
2017-09-30,241210782.01,154113597.6,63.89%,118307586.66,49.05%,4110897.15,1.70%,11733669.3,4.86%,9197025.1,3.81%,87097184.41,36.11%,31217763.79,12.94%,23920304.66,9.92%,503518.51,0.21%,,--,71219326.74,60780637.34,85.34%,10438689.4,14.66%,000004
2017-09-30,2792868433.39,1211581216.8,43.38%,58495220.86,2.09%,107353170.41,3.84%,609178555.24,21.81%,17080210.36,0.61%,1581287216.59,56.62%,39974258.86,1.43%,34301655.47,1.23%,6558821.96,0.23%,,--,1448607469.56,1317550212.44,90.95%,131057257.12,9.05%,000005
2017-09-30,13222691674.59,11168786450.12,84.47%,3876601014.21,29.32%,6137329.88,0.05%,6904448799.62,52.22%,104395000,0.79%,2053905224.47,15.53%,2961558.5,0.02%,,--,2322510.46,0.02%,,--,7982208562.2,6733394560.45,84.36%,1248814001.75,15.64%,000006
2017-09-30,431421891.67,194067375.17,44.98%,12730243.82,2.95%,48177.78,0.01%,113233.96,0.03%,30555,0.01%,237354516.5,55.02%,81152876.58,18.81%,340783.51,0.08%,225524.49,0.05%,,--,47286473.51,47286473.51,100.00%,,--,000007
2017-09-30,9471991576.95,5019608194.93,52.99%,1074388019.39,11.34%,1809724329.62,19.11%,888037469.04,9.38%,220721754.53,2.33%,4452383382.02,47.01%,218864182.51,2.31%,189292588.3,2.00%,12241478.71,0.13%,,--,3155069061.2,3091071738.79,97.97%,63997322.41,2.03%,000008
2017-09-30,26621782401.02,18512907907.02,69.54%,4168921204.53,15.66%,2014836394.53,7.57%,8568002084.42,32.18%,653577978.92,2.46%,8108874494,30.46%,3658822489.3,13.74%,1052060645.27,3.95%,129399771.05,0.49%,,--,16531381509.47,10081573245.59,60.98%,6449808263.88,39.02%,000009
2017-09-30,4090477309.11,3007369060.98,73.52%,436790064.92,10.68%,321210414.26,7.85%,2010079760.14,49.14%,77623186.62,1.90%,1083108248.13,26.48%,64560928.28,1.58%,11912801.43,0.29%,13108431.84,0.32%,,--,1836517982.95,1818539646.4,99.02%,17978336.55,0.98%,000010
2017-09-30,5447556053.87,4551631319.84,83.55%,2474901711.24,45.43%,45864363.96,0.84%,1791881804.12,32.89%,27775804,0.51%,895924734.03,16.45%,29328730.61,0.54%,,--,994612.92,0.02%,,--,2567817082.48,2512040149.82,97.83%,55776932.66,2.17%,000011
2017-09-30,18913831052,4157557085,21.98%,1813992086,9.59%,758405366,4.01%,699223499,3.70%,136813682,0.72%,14756273967,78.02%,11780940567,62.29%,1041511092,5.51%,11385720,0.06%,,--,10239555715,6811413867,66.52%,3428141848,33.48%,000012
2017-09-30,1516259114.5,1341208091.93,88.46%,156593197.77,10.33%,902177.26,0.06%,1091746792.24,72.00%,13419432.31,0.89%,175051022.57,11.54%,18518528.24,1.22%,393816.59,0.03%,3469082.66,0.23%,,--,721324702.36,568074702.36,78.75%,153250000,21.25%,000014
2017-09-30,23001136641.03,18273951959.24,79.45%,2692203387.51,11.70%,2586118790.93,11.24%,7526401822.92,32.72%,469186670.75,2.04%,4727184681.79,20.55%,1634393480.21,7.11%,202318456.68,0.88%,138603216.64,0.60%,,--,19514908743.69,19136348864.98,98.06%,378559878.71,1.94%,000016
2017-09-30,62394750.79,55416046.49,88.82%,17076100.83,27.37%,24516314.64,39.29%,8568881.53,13.73%,2251564.46,3.61%,6978704.3,11.18%,3497887.42,5.61%,2447250,3.92%,,--,,--,46725734.41,46725734.41,100.00%,,--,000017
2017-09-30,10495996015.27,9394658525.03,89.51%,1470453794.78,14.01%,5072793851.05,48.33%,426746726.92,4.07%,311054365.54,2.96%,1101337490.24,10.49%,140014185.65,1.33%,126422718.3,1.20%,4105972.9,0.04%,,--,8384187499.72,7460308299.67,88.98%,923879200.05,11.02%,000018
2017-09-30,1132336842.61,578448219.36,51.08%,218545673.49,19.30%,96155115.51,8.49%,166696965.43,14.72%,7124157.03,0.63%,553888623.25,48.92%,318706515.73,28.15%,191539028.01,16.92%,11368858.29,1.00%,,--,139043522.96,125203579.01,90.05%,13839943.95,9.95%,000019
2017-09-30,688145685.76,413667346.83,60.11%,59390689.52,8.63%,219580759.3,31.91%,54065927.05,7.86%,6685124.13,0.97%,274478338.93,39.89%,77771557.55,11.30%,43757374.73,6.36%,154166.56,0.02%,,--,368098727.68,367854519.13,99.93%,244208.55,0.07%,000020
2017-09-30,16790541653.21,11998422919.72,71.46%,7841739214.24,46.70%,2095939168.38,12.48%,1314876632.2,7.83%,65161580.05,0.39%,4792118733.49,28.54%,2361794561.11,14.07%,154990492.65,0.92%,176314654.8,1.05%,,--,10920966136.57,10722831823.44,98.19%,198134313.13,1.81%,000021
2017-12-31,7975470563.32,1157869227.27,14.52%,818193679.32,10.26%,257081961.83,3.22%,21862480.1,0.27%,4354830.16,0.05%,6817601336.05,85.48%,3929355718.6,49.27%,1350224998.54,16.93%,98278001.09,1.23%,,--,1408427653.69,885299384.16,62.86%,523128269.53,37.14%,000022
2017-09-30,1857305228.7,1664399040.7,89.61%,376571159.4,20.28%,701906541.77,37.79%,483620961.08,26.04%,23477818.13,1.26%,192906188,10.39%,137380700.71,7.40%,5167090.35,0.28%,15604914.56,0.84%,,--,1373405546.15,1346342482.87,98.03%,27063063.28,1.97%,000023
2017-09-30,1346720215.99,425397494.64,31.59%,128227347.28,9.52%,7425022.26,0.55%,14586110.9,1.08%,8703306,0.65%,921322721.35,68.41%,121973949.05,9.06%,52694644.87,3.91%,2107185.63,0.16%,,--,383226130.39,336754603.31,87.87%,46471527.08,12.13%,000025
2017-12-31,3579789692.9,2427898745.03,67.82%,187152891.32,5.23%,326254624.94,9.11%,1820526676.26,50.86%,24663314.53,0.69%,1151890947.87,32.18%,523699592.65,14.63%,44223280.21,1.24%,109409785.49,3.06%,,--,1111816815.92,1026042462.92,92.29%,85774353,7.71%,000026
2017-09-30,70439323860.28,14730805746.33,20.91%,4550421854.28,6.46%,4512752819.78,6.41%,1840139429.82,2.61%,468704466.65,0.67%,55708518113.95,79.09%,23066017334.29,32.75%,3821892822.7,5.43%,63752729.03,0.09%,,--,44990317749.31,20412230788.59,45.37%,24578086960.72,54.63%,000027
2017-09-30,23155826581.9,19271663262.1,83.23%,3525575302.08,15.23%,9773204908.31,42.21%,4135298239.08,17.86%,407576331.96,1.76%,3884163319.8,16.77%,530984854.51,2.29%,330038784.01,1.43%,217702792.23,0.94%,,--,13548838984.7,13259392999.53,97.86%,289445985.17,2.14%,000028
2017-09-30,3820236889.03,3283738961.1,85.96%,1057942554.74,27.69%,165767740.97,4.34%,1911577458.16,50.04%,13703629.69,0.36%,536497927.93,14.04%,40967984.94,1.07%,4764525,0.12%,600744.52,0.02%,,--,1150510959.27,1043514364.28,90.70%,106996594.99,9.30%,000029
2017-09-30,9745602837.54,4887873224.12,50.15%,1386699484.05,14.23%,1393013814.86,14.29%,586724075.18,6.02%,44032390.58,0.45%,4857729613.42,49.85%,1687702457.04,17.32%,291120396.99,2.99%,62833.09,0.00%,,--,3601522966.46,2740446478.07,76.09%,861076488.39,23.91%,000030
2017-09-30,69057312740.46,58850908435.11,85.22%,10376528251.6,15.03%,264105720.51,0.38%,32525361849.08,47.10%,133186261.54,0.19%,10206404305.35,14.78%,571348051.36,0.83%,53555783.96,0.08%,11823530.28,0.02%,,--,57326373018.63,37011284425.42,64.56%,20315088593.21,35.44%,000031
2017-09-30,2038845058.06,1489406839.84,73.05%,628483371.83,30.83%,231462780.39,11.35%,249069828.14,12.22%,147673543.54,7.24%,549438218.22,26.95%,103752808.76,5.09%,263115034.61,12.91%,8687525.83,0.43%,,--,464937425.86,444897345.6,95.69%,20040080.26,4.31%,000032
2017-09-30,20821696095.23,16203921832.66,77.82%,1631397991.13,7.84%,5738317855.34,27.56%,6087148529.92,29.23%,1213719300.95,5.83%,4617774262.57,22.18%,194399783.21,0.93%,2317987438.95,11.13%,10255879.97,0.05%,,--,17872541438.84,16591111429.51,92.83%,1281430009.33,7.17%,000034
2017-09-30,7437676789.93,1211072425.21,16.28%,478430691.41,6.43%,325261237.55,4.37%,143557618.4,1.93%,39531804.24,0.53%,6226604364.72,83.72%,1065291861.99,14.32%,1707542966.92,22.96%,16281201.37,0.22%,,--,4480667090.39,2493296378.27,55.65%,1987370712.12,44.35%,000035
2017-09-30,8217086103.79,5932626873.99,72.20%,1729180818.33,21.04%,30509220.74,0.37%,3881283796.34,47.23%,7257521.84,0.09%,2284459229.8,27.80%,933309491.84,11.36%,8164548.51,0.10%,35349724.32,0.43%,,--,3429611630.29,2669388975.84,77.83%,760222654.45,22.17%,000036
2017-09-30,3071070966.82,1415706161.69,46.10%,343763552.51,11.19%,303477152.11,9.88%,87169305.27,2.84%,175774024.15,5.72%,1655364805.13,53.90%,1451185900.14,47.25%,49123077.91,1.60%,,--,,--,1056688414.82,959630219.54,90.81%,97058195.28,9.19%,000037
2017-09-30,5692531627.01,2991039616.51,52.54%,1577571746.79,27.71%,605059766.53,10.63%,106858.64,0.00%,65865519.49,1.16%,2701492010.5,47.46%,125675820.27,2.21%,65120026.94,1.14%,790673.19,0.01%,,--,387070202.84,244974830.39,63.29%,142095372.45,36.71%,000038
2017-09-30,135557585000,63470793000,46.82%,7536347000,5.56%,15546184000,11.47%,18689403000,13.79%,2849212000,2.10%,72086792000,53.18%,21443782000,15.82%,4524580000,3.34%,269247000,0.20%,,--,94194981000,58396974000,62.00%,35798007000,38.00%,000039
2017-09-30,24805580495.5,18000016264.87,72.56%,8348655226.28,33.66%,2411591023.89,9.72%,5582799603.83,22.51%,538826155.03,2.17%,6805564230.63,27.44%,2814652119.17,11.35%,136838314.37,0.55%,85769031.35,0.35%,,--,13453078943.29,8898521301.19,66.14%,4554557642.1,33.86%,000040
2017-09-30,41952613194.6,37473067200.45,89.32%,5370569513.38,12.80%,125811084.2,0.30%,28675614309.28,68.35%,1618707309,3.86%,4479545994.15,10.68%,1358321186.94,3.24%,5914401.79,0.01%,149545702.73,0.36%,,--,35659681504.48,22496350978.58,63.09%,13163330525.9,36.91%,000042
2017-09-30,19191078011.1,9881292472.77,51.49%,1761351561.48,9.18%,807214239.04,4.21%,6179024242.43,32.20%,121436276.07,0.63%,9309785538.33,48.51%,625902554.07,3.26%,11261077.26,0.06%,45629129.24,0.24%,,--,14593775501.06,6684168524.27,45.80%,7909606976.79,54.20%,000043
2017-09-30,4090812137.82,2854408032.43,69.78%,738680258.46,18.06%,207416991.29,5.07%,294949012.98,7.21%,45289657.02,1.11%,1236404105.39,30.22%,671313620.02,16.41%,39194766.13,0.96%,1095259.58,0.03%,,--,612075109.05,425385034.39,69.50%,186690074.66,30.50%,000045
2017-09-30,186589468200.85,136531656476.29,73.17%,24216355113.65,12.98%,1221457306.01,0.65%,81791677960.77,43.84%,925641239.79,0.50%,50057811724.56,26.83%,973059038.15,0.52%,100724831.28,0.05%,82531323.96,0.04%,,--,160733453242.55,74584865224.53,46.40%,86148588018.02,53.60%,000046
2017-09-30,2778657675.47,1842486737.44,66.31%,615267242.01,22.14%,63058570.9,2.27%,1103908791.14,39.73%,34301649.42,1.23%,936170938.03,33.69%,400251270.86,14.40%,108854586.6,3.92%,31793031.06,1.14%,,--,2013323407.15,1367588651.49,67.93%,645734755.66,32.07%,000048
2017-09-30,6433966966.92,5231023953.81,81.30%,514549875.05,8.00%,2629228740.85,40.86%,1479874068.99,23.00%,49016761.6,0.76%,1202943013.11,18.70%,639897976.47,9.95%,59972015.61,0.93%,387843997.58,6.03%,,--,4753648419.76,4749180618.08,99.91%,4467801.68,0.09%,000049
2017-12-31,29652260560.19,11260233777.86,37.97%,4290277164.65,14.47%,3330300808.23,11.23%,1602881187.37,5.41%,25565521.95,0.09%,18392026782.33,62.03%,6622115057.18,22.33%,1019078617.59,3.44%,31255212.34,0.11%,,--,15177463413.53,10199033475.04,67.20%,4978429938.49,32.80%,000050
2017-09-30,6971041157.32,5786435993.9,83.01%,1645487558.41,23.60%,1965776007.03,28.20%,1917297358.74,27.50%,77748206.13,1.12%,1184605163.42,16.99%,492174639.61,7.06%,60249472.17,0.86%,2665605.83,0.04%,,--,4577719680.04,3395913583.63,74.18%,1181806096.41,25.82%,000055
2017-09-30,13805657202.47,2862142322.9,20.73%,857580917.62,6.21%,67082941.74,0.49%,72160144.88,0.52%,3788649.87,0.03%,10943514879.57,79.27%,54964139.53,0.40%,3027143.41,0.02%,57789164.53,0.42%,,--,8038520253.69,1157963066.5,14.41%,6880557187.19,85.59%,000056
2017-09-30,7397829303.2,5646022708.8,76.32%,1053465481.57,14.24%,91439683.76,1.24%,3772815840.59,51.00%,48136312.56,0.65%,1751806594.4,23.68%,55897477.77,0.76%,32405659.95,0.44%,108550304.96,1.47%,,--,5036446706,4346145074.35,86.29%,690301631.65,13.71%,000058
2017-09-30,31751059731.55,13647208815.03,42.98%,6436326135.05,20.27%,590924817.6,1.86%,3983136816.25,12.54%,2294812681.32,7.23%,18103850916.52,57.02%,13527950526.02,42.61%,1521843922.33,4.79%,89271056.71,0.28%,,--,19712447385.82,19354067709.1,98.18%,358379676.72,1.82%,000059
2017-09-30,18703757067.52,7355439061.78,39.33%,2063966484.83,11.04%,657668691.87,3.52%,2055899840.7,10.99%,182984141.46,0.98%,11348318005.74,60.67%,5094815445.96,27.24%,3200735186.89,17.11%,10677989.66,0.06%,,--,8202225495.87,5217671738.81,63.61%,2984553757.06,36.39%,000060
2017-09-30,17898447887.86,3051623867.74,17.05%,1248192183.47,6.97%,51385376.66,0.29%,517531631.49,2.89%,104727882.09,0.59%,14846824020.12,82.95%,1905854971.79,10.65%,2319578045.31,12.96%,179244397.22,1.00%,,--,11493041252.46,6546261869.54,56.96%,4946779382.92,43.04%,000061
2017-09-30,8528520978.23,4620911907.25,54.18%,1091918194.36,12.80%,1775687877.14,20.82%,1158780722.45,13.59%,271859350.6,3.19%,3907609070.98,45.82%,313818831.04,3.68%,190728639.88,2.24%,61912052.45,0.73%,,--,4135225093.25,3345673697.62,80.91%,789551395.63,19.09%,000062
2017-09-30,146028404000,110639295000,75.77%,26182073000,17.93%,25305952000,17.33%,27773575000,19.02%,1717816000,1.18%,35389109000,24.23%,8484191000,5.81%,4870455000,3.34%,34971000,0.02%,,--,101021792000,94575112000,93.62%,6446680000,6.38%,000063
2017-09-30,12013481077.8,9847599093.91,81.97%,5042856508.18,41.98%,2094539091.34,17.43%,900554705.36,7.50%,1527957750.81,12.72%,2165881983.89,18.03%,386867352.3,3.22%,1379247077.57,11.48%,11329629.41,0.09%,,--,8067580895.75,7243781887.95,89.79%,823799007.8,10.21%,000065
2017-09-30,14774572190.34,7104137766.84,48.08%,1864756441.39,12.62%,2306566152.87,15.61%,1999130241.5,13.53%,247917129.9,1.68%,7670434423.5,51.92%,1808084583.16,12.24%,388067831.72,2.63%,10138340.62,0.07%,,--,7122394747.77,4233398897.2,59.44%,2888995850.57,40.56%,000066
2017-09-30,2098397704.69,1207533902.8,57.55%,873127731.69,41.61%,190779109.95,9.09%,32443844.43,1.55%,12266274.33,0.58%,890863801.89,42.45%,181246632.71,8.64%,39122220.54,1.86%,3658303.74,0.17%,,--,1046573581.52,1038178530.02,99.20%,8395051.5,0.80%,000068
2017-09-30,197351602760.06,147857078396.38,74.92%,30348842379.05,15.38%,513117343.2,0.26%,90502473832.01,45.86%,13611415002.17,6.90%,49494524363.68,25.08%,13985804092.79,7.09%,6367854367.54,3.23%,679240811.56,0.34%,,--,144522358171.02,101808761207.4,70.44%,42713596963.62,29.56%,000069
2017-09-30,5792308357.51,4313296604.05,74.47%,449916547.02,7.77%,1888143265.43,32.60%,1305271458.3,22.53%,182775814.83,3.16%,1479011753.46,25.53%,561972116.83,9.70%,123418804.09,2.13%,29536539.74,0.51%,,--,3581190060.9,3379207002.9,94.36%,201983058,5.64%,000070
2017-09-30,25275312515.91,20435089576.83,80.85%,3204714232.76,12.68%,11135904903.83,44.06%,2918507779.38,11.55%,1032942533.25,4.09%,4840222939.08,19.15%,623494555.2,2.47%,348923355.99,1.38%,117023185.19,0.46%,,--,18890572012.79,17148627079.72,90.78%,1741944933.07,9.22%,000078
2017-09-30,9016301971.07,1366079865.06,15.15%,1191208458.05,13.21%,24709999.08,0.27%,38625.4,0.00%,,--,7650222106.01,84.85%,332591043.3,3.69%,238587454.66,2.65%,6852623.01,0.08%,,--,2089500378.23,345695200.54,16.54%,1743805177.69,83.46%,000088
2017-09-30,13021436127.17,3698389997.7,28.40%,2565330706.78,19.70%,587020573.51,4.51%,6334193.8,0.05%,629165.79,0.00%,9323046129.47,71.60%,7405127136.01,56.87%,230748072.39,1.77%,1142925.06,0.01%,,--,1959629460.73,1954468984.3,99.74%,5160476.43,0.26%,000089
2017-09-30,23673731678.61,20038284147.35,84.64%,3746101971.07,15.82%,614563764.08,2.60%,15115854552.55,63.85%,149394599.34,0.63%,3635447531.26,15.36%,316434662.78,1.34%,127466943.1,0.54%,18950355.99,0.08%,,--,17139209518.18,10880328580.83,63.48%,6258880937.35,36.52%,000090
2017-09-30,2518387732.62,1436371932.99,57.04%,1220115021.75,48.45%,18662780.21,0.74%,25816964.77,1.03%,735563.77,0.03%,1082015799.63,42.96%,69795036.19,2.77%,117137977.36,4.65%,18507616.33,0.73%,,--,147411096.18,122967987.91,83.42%,24443108.27,16.58%,000096
2017-09-30,5640415887.52,1885209905.42,33.42%,339788158.36,6.02%,585055346.75,10.37%,316094303.33,5.60%,25643186.07,0.45%,3755205982.1,66.58%,2992391372.79,53.05%,95913130.78,1.70%,59360035.93,1.05%,,--,2594512344.9,855052065.19,32.96%,1739460279.71,67.04%,000099
2017-09-30,160906413924,85217171991,52.96%,18531230444,11.52%,16695047727,10.38%,12246908635,7.61%,851475127,0.53%,75689241933,47.04%,34239272724,21.28%,6500441619,4.04%,462968117,0.29%,,--,108439093977,73630125481,67.90%,34808968496,32.10%,000100
2017-09-30,7397718049.93,2915238042.54,39.41%,424600101.33,5.74%,764912365.19,10.34%,179659928.35,2.43%,876486042,11.85%,4482480007.39,60.59%,848766478.86,11.47%,668022662.59,9.03%,89802785.3,1.21%,,--,4789085726.02,3582143971.37,74.80%,1206941754.65,25.20%,000150
2017-09-30,2307613736.25,1888079766.74,81.82%,1468387469.12,63.63%,50377575.73,2.18%,91020397.2,3.94%,115896851.45,5.02%,419533969.51,18.18%,68019973.07,2.95%,21528474.3,0.93%,14439334.67,0.63%,,--,1326140335.57,1321300033.81,99.64%,4840301.76,0.36%,000151
2017-09-30,2745166199.31,1467902724.16,53.47%,245630939.91,8.95%,653919494.77,23.82%,360520496.97,13.13%,87054533.13,3.17%,1277263475.15,46.53%,812655871.27,29.60%,120888222.2,4.40%,15265853.6,0.56%,,--,1540226544.44,1443922691.32,93.75%,96303853.12,6.25%,000153
2017-09-30,6204279646.82,3417425774.78,55.08%,705702210.28,11.37%,1246844085.79,20.10%,10578349.4,0.17%,331920824.54,5.35%,2786853872.04,44.92%,2037835438.75,32.85%,11539463.92,0.19%,,--,,--,2697648419.01,1112884880.13,41.25%,1584763538.88,58.75%,000155
2017-09-30,14243725630.67,8217184293.01,57.69%,5108998182.45,35.87%,832334713.9,5.84%,59077885.91,0.41%,72909453.93,0.51%,6026541337.66,42.31%,2520429280.83,17.70%,260447861.85,1.83%,958014817.02,6.73%,,--,3994036122.58,2534346215.49,63.45%,1459689907.09,36.55%,000156
2017-09-30,86117168799.21,64508317585.38,74.91%,10078921014.26,11.70%,23486367564.54,27.27%,9832021444.39,11.42%,386081772.36,0.45%,21608851213.83,25.09%,6070944546.38,7.05%,3897558254.71,4.53%,18792571.56,0.02%,,--,48112738299.1,25801354513.92,53.63%,22311383785.18,46.37%,000157
2017-09-30,11962260165.49,6740626349.43,56.35%,947137977.49,7.92%,1830163257.3,15.30%,1975512138.22,16.51%,1328993947.46,11.11%,5221633816.06,43.65%,1313773332.73,10.98%,245906287.84,2.06%,8292714.24,0.07%,,--,6229357551.83,4783406846.72,76.79%,1445950705.11,23.21%,000158
2017-09-30,3028166575.82,1866263486.21,61.63%,227980844.89,7.53%,98535400.89,3.25%,870518908.58,28.75%,140923957.59,4.65%,1161903089.61,38.37%,379013543.64,12.52%,65180780.28,2.15%,1713976.22,0.06%,,--,899062226.07,783101876.24,87.10%,115960349.83,12.90%,000159
2017-09-30,288672944566.7,,--,75010243618.05,25.98%,1919280208.1,0.66%,,--,,--,,--,1267675895.41,0.44%,115545852.05,0.04%,,--,,--,232391579801.43,,--,,--,000166
2017-12-31,4415328793.21,2277883299.7,51.59%,707856547.34,16.03%,43452497.6,0.98%,597290615.28,13.53%,6174605.74,0.14%,2137445493.51,48.41%,384063841.77,8.70%,183457844.02,4.16%,5046026.58,0.11%,,--,825544420,426641146.66,51.68%,398903273.34,48.32%,000301
2017-09-30,242183276000,163349932000,67.45%,41657437000,17.20%,17360462000,7.17%,23752878000,9.81%,2105052000,0.87%,78833344000,32.55%,22348578000,9.23%,16010089000,6.61%,702846000,0.29%,,--,161929547000,114918493000,70.97%,47011054000,29.03%,000333
2017-09-30,193535944910.69,104420213429.53,53.95%,34791181838.51,17.98%,19403453743.34,10.03%,19784932621.98,10.22%,762288887.65,0.39%,89115731481.16,46.05%,26618108194.56,13.75%,24283215569.97,12.55%,340101601.88,0.18%,,--,139634979584.95,81099012889.53,58.08%,58535966695.42,41.92%,000338
2017-09-30,14463503316.78,12414840503.84,85.84%,831351761.21,5.75%,7637291349.45,52.80%,2886468906.6,19.96%,710110942.99,4.91%,2048662812.94,14.16%,,--,310459265.14,2.15%,13541.21,0.00%,,--,6703586404.01,5981454490.49,89.23%,722131913.52,10.77%,000400
2017-09-30,41733083286.46,11804231042.82,28.29%,3932665193.9,9.42%,1739529825.56,4.17%,1545700420.12,3.70%,983600893.98,2.36%,29928852243.64,71.71%,22542946281.58,54.02%,2804036521.67,6.72%,438688585.45,1.05%,,--,30183123644.95,22516672690.58,74.60%,7666450954.37,25.40%,000401
2017-09-30,115724081464.22,82901352163.85,71.64%,11230348961.8,9.70%,415550790.23,0.36%,62536956120.59,54.04%,5573199223.74,4.82%,32822729300.37,28.36%,2572201964.3,2.22%,601733185.59,0.52%,3221137.34,0.00%,,--,84209818609.31,31422671803.7,37.31%,52787146805.61,62.69%,000402
2017-09-30,1303941109.11,642391224.28,49.27%,112335833.88,8.62%,76871250.33,5.90%,367870242.26,28.21%,13516131.76,1.04%,661549884.83,50.73%,453844729.53,34.81%,70712951.38,5.42%,17698410.62,1.36%,,--,701683653.64,639895841.07,91.19%,61787812.57,8.81%,000403
2017-09-30,9671618668.48,7648428209.48,79.08%,2037392903.41,21.07%,1465948068.63,15.16%,1131600453.92,11.70%,207699624.5,2.15%,2023190459,20.92%,1387692359.24,14.35%,181628740.42,1.88%,4503488.5,0.05%,,--,5613663678.4,5497590168.95,97.93%,116073509.45,2.07%,000404
2017-09-30,5005190079.61,1782183140.39,35.61%,373462623.94,7.46%,342076477.04,6.83%,388534079.7,7.76%,265086859.66,5.30%,3223006939.22,64.39%,867636628.98,17.33%,101094913,2.02%,14572414.15,0.29%,,--,2292448396.16,1927299470.27,84.07%,365148925.89,15.93%,000407
2017-09-30,7640744101.93,3616231816.37,47.33%,1224454754.14,16.03%,715625050.95,9.37%,416115871.43,5.45%,495770662.22,6.49%,4024512285.56,52.67%,3130424041.52,40.97%,317522190.97,4.16%,7875000,0.10%,,--,1650084403.02,1415142103.05,85.76%,234942299.97,14.24%,000408
2017-09-30,6562342273.49,2326027670.01,35.45%,255069616.42,3.89%,404731322.94,6.17%,1007032871.65,15.35%,391481287.16,5.97%,4236314603.48,64.55%,938817324.16,14.31%,1385667255.05,21.12%,34078746.11,0.52%,,--,5334149431.79,4254531635.7,79.76%,1079617796.09,20.24%,000409
2017-12-31,21410684233.2,17083270632.33,79.79%,5839187982.56,27.27%,4909867813.02,22.93%,5504130781.28,25.71%,374558230.02,1.75%,4327413600.87,20.21%,3003514663.24,14.03%,705100892.18,3.29%,31938106.4,0.15%,,--,20389661083.31,18901991127.27,92.70%,1487669956.04,7.30%,000410
2017-09-30,8965376732.72,8116614571.19,90.53%,703678287.71,7.85%,4579361076.82,51.08%,2102107460.25,23.45%,398232426.16,4.44%,848762161.53,9.47%,530599927.08,5.92%,113234464.7,1.26%,25767797.19,0.29%,,--,7111640993.48,7021683459.42,98.74%,89957534.06,1.26%,000411
2017-09-30,48694131849.4,34777296179.41,71.42%,23079862862.63,47.40%,2815556458.91,5.78%,3706559024.47,7.61%,1986345935.58,4.08%,13916835669.99,28.58%,8994418300.94,18.47%,570204643.02,1.17%,18712963.05,0.04%,,--,24464701601.66,11508088171.23,47.04%,12956613430.43,52.96%,000413
2017-09-30,310888215000,57651142000,18.54%,38157510000,12.27%,1520282000,0.49%,484000,0.00%,68108000,0.02%,253237073000,81.46%,183763827000,59.11%,488743000,0.16%,203193000,0.07%,,--,274647096000,70725384000,25.75%,203921712000,74.25%,000415
2017-09-30,929241618.33,665893959.5,71.66%,124658066.2,13.42%,3162912.33,0.34%,36800,0.00%,262841.91,0.03%,263347658.83,28.34%,41108565.81,4.42%,414292.18,0.04%,2022380.83,0.22%,,--,26991116.93,26629120.93,98.66%,361996,1.34%,000416
2017-09-30,9806742858.27,5323566495.73,54.28%,3084672596.07,31.45%,96231649.72,0.98%,1366748294.29,13.94%,273827079.04,2.79%,4483176362.54,45.72%,1734971740.84,17.69%,991793082.79,10.11%,94323467.27,0.96%,,--,5469038728.91,4742891212.74,86.72%,726147516.17,13.28%,000417
2017-12-31,21338421243.67,19564974030.27,91.69%,1588264516.05,7.44%,1736724496.1,8.14%,1980766196.14,9.28%,84346792.38,0.40%,1773447213.4,8.31%,1029668355.84,4.83%,187045347.27,0.88%,22382020.52,0.10%,,--,13120123230.63,13103359395,99.87%,16763835.63,0.13%,000418
2017-09-30,4007475472.85,2070579758.95,51.67%,856824144.86,21.38%,21136401.14,0.53%,309381961.07,7.72%,46007962.37,1.15%,1936895713.9,48.33%,1184251619.64,29.55%,292688359.6,7.30%,159240074.14,3.97%,,--,1845254473.23,1775905721.07,96.24%,69348752.16,3.76%,000419
2017-12-31,6180131201.36,1416978191.61,22.93%,377792373.03,6.11%,134788070.3,2.18%,479568695.12,7.76%,115007856.75,1.86%,4763153009.75,77.07%,2773306320.31,44.87%,228721044.25,3.70%,102455.1,0.00%,,--,3400205941.63,3205216195.76,94.27%,194989745.87,5.73%,000420
2017-09-30,8460512354.35,4535387986.46,53.61%,1934130134.67,22.86%,180775911.61,2.14%,2139168937.45,25.28%,150925516.05,1.78%,3925124367.89,46.39%,2830098705.98,33.45%,109137162.1,1.29%,15594022.56,0.18%,,--,5132928865.72,4520268184.73,88.06%,612660680.99,11.94%,000421
2017-09-30,38170565102.23,12186756476.89,31.93%,4531800383.07,11.87%,655972704.16,1.72%,3994878179.24,10.47%,1661646711.17,4.35%,25983808625.34,68.07%,20832613279.22,54.58%,676962479.94,1.77%,19703004.9,0.05%,,--,32668899600.62,25622570598.17,78.43%,7046329002.45,21.57%,000422
2017-09-30,10918921644.48,8287957483.98,75.90%,1310016915.52,12.00%,535561914.97,4.90%,4147911185.17,37.99%,211503189.17,1.94%,2630964160.5,24.10%,1457234532.26,13.35%,279227276.32,2.56%,33460550.83,0.31%,,--,1880403845.03,1815132088.9,96.53%,65271756.13,3.47%,000423
2017-09-30,50599795840.97,37230395039.44,73.58%,7558109230.5,14.94%,16843318994.62,33.29%,8415046670.79,16.63%,823915963.72,1.63%,13369400801.53,26.42%,7219264982.92,14.27%,1857493246.4,3.67%,15293651.41,0.03%,,--,26742455368.79,22570129575.15,84.40%,4172325793.64,15.60%,000425
2017-09-30,8957520091.8,585371400.97,6.53%,206303101.46,2.30%,32313216.83,0.36%,191573007.8,2.14%,6895803.55,0.08%,8372148690.83,93.47%,3336257706.72,37.25%,3705641270.56,41.37%,32422441.24,0.36%,,--,3719455514.54,1612283211.92,43.35%,2107172302.62,56.65%,000426
2017-09-30,8566602280.35,2995212630.91,34.96%,320015652.66,3.74%,88059624.8,1.03%,2145312149.12,25.04%,195072846.25,2.28%,5571389649.44,65.04%,3565749676.3,41.62%,564425314.5,6.59%,239982872.53,2.80%,,--,5806050557.29,4072589717.28,70.14%,1733460840.01,29.86%,000428
2017-09-30,16368527561.41,3098418262.85,18.93%,2980434574.99,18.21%,91856731.95,0.56%,1867867.55,0.01%,1660931.62,0.01%,13270109298.56,81.07%,8668633139.67,52.96%,3599051.15,0.02%,404213.04,0.00%,,--,6884381935.98,1470149246.46,21.35%,5414232689.52,78.65%,000429
2017-09-30,2373473275.99,302642214.72,12.75%,244592964.65,10.31%,6316546.88,0.27%,8780009.74,0.37%,6395277.04,0.27%,2070831061.27,87.25%,614822341.89,25.90%,1040869645.93,43.85%,27468828.56,1.16%,,--,807487622.79,559635588.92,69.31%,247852033.87,30.69%,000430
2017-09-30,98789227727.27,49974205872.47,50.59%,14767294153.38,14.95%,3949840303.8,4.00%,5408154387.01,5.47%,2456350916.92,2.49%,48815021854.8,49.41%,27270769747.52,27.61%,2099221292.45,2.12%,140919078.86,0.14%,,--,71794334718.83,54888576078.83,76.45%,16905758640,23.55%,000488
2017-09-30,16900319458.93,14139232003.74,83.66%,2063085974.12,12.21%,4185223149.41,24.76%,6053945171.73,35.82%,238298881.7,1.41%,2761087455.19,16.34%,577441149.36,3.42%,48069757.23,0.28%,31719626.04,0.19%,,--,13009660462.75,10368303541.96,79.70%,2641356920.79,20.30%,000498
2017-09-30,17599678264.33,4031905608.42,22.91%,2539808369.04,14.43%,16155028.45,0.09%,787302410.98,4.47%,507744210.54,2.88%,13567772655.91,77.09%,6963345833.82,39.57%,2665960851.3,15.15%,332118837.84,1.89%,,--,10800102752.32,9152669537.47,84.75%,1647433214.85,15.25%,000501
2017-09-30,470134040.03,235020066.47,49.99%,147165376.2,31.30%,5948857.86,1.27%,30776960.4,6.55%,3772417.45,0.80%,235113973.56,50.01%,27527942.56,5.86%,148346649.07,31.55%,1920711.53,0.41%,,--,296034609.64,296034609.64,100.00%,,--,000502
2017-09-30,1424928205.33,1003571788.06,70.43%,577947486,40.56%,8310382.24,0.58%,173224.38,0.01%,279081431.86,19.59%,421356417.27,29.57%,46461081.48,3.26%,185420050.48,13.01%,4535327.71,0.32%,,--,191778579.86,191518411.41,99.86%,260168.45,0.14%,000503
2017-09-30,302449936.35,194926285.31,64.45%,70507733.87,23.31%,7963937.68,2.63%,20419735.12,6.75%,10490128.45,3.47%,107523651.04,35.55%,10441679.33,3.45%,7951130.96,2.63%,24581858.53,8.13%,,--,246270894.99,241007007.95,97.86%,5263887.04,2.14%,000504
2017-09-30,4747421920.84,2678251920.49,56.41%,602618963.22,12.69%,203373667.83,4.28%,942254413.97,19.85%,382711901.44,8.06%,2069170000.35,43.59%,1249470889.94,26.32%,385249713.38,8.11%,28910630.29,0.61%,,--,2604653737.85,2445607931.34,93.89%,159045806.51,6.11%,000505
2017-09-30,2949181706.71,1799537144.43,61.02%,126285609,4.28%,6184743.32,0.21%,629996736.05,21.36%,55216419.29,1.87%,1149644562.28,38.98%,492174558.6,16.69%,344918930.93,11.70%,,--,,--,1524496543.53,1444571067.27,94.76%,79925476.26,5.24%,000506
2017-09-30,6074963939.1,1264824334.61,20.82%,412144978.78,6.78%,392828374.32,6.47%,72093025.58,1.19%,89983078.05,1.48%,4810139604.49,79.18%,2508694751.55,41.30%,208995147.45,3.44%,11183268.22,0.18%,,--,3024796458.94,1174709064.38,38.84%,1850087394.56,61.16%,000507
2017-09-30,352041039.16,272532693.21,77.42%,58201062.21,16.53%,8057788.32,2.29%,88606852.95,25.17%,50169087.08,14.25%,79508345.95,22.58%,18952815.31,5.38%,,--,,--,,--,345839720.33,314019240.85,90.80%,31820479.48,9.20%,000509
2017-09-30,1388678828.91,360434331.88,25.96%,97995017.65,7.06%,37524711.54,2.70%,78133532.65,5.63%,24842881.93,1.79%,1028244497.03,74.04%,900007560.63,64.81%,61153694.69,4.40%,2553095.06,0.18%,,--,545190942.36,511581136.02,93.84%,33609806.34,6.16%,000510
2017-09-30,3462749150.89,3128330404.24,90.34%,24568641.34,0.71%,344734757.34,9.96%,1341858060.76,38.75%,801409038.98,23.14%,334418746.65,9.66%,24054696.92,0.69%,167863.11,0.00%,4294556.15,0.12%,,--,2252514120.27,2152997494.66,95.58%,99516625.61,4.42%,000511
2017-09-30,15793351753.51,11305452613.57,71.58%,6983093776.66,44.22%,1775383748.27,11.24%,1111875931.81,7.04%,120021225.76,0.76%,4487899139.94,28.42%,3190263667.96,20.20%,268795961.44,1.70%,110982263.33,0.70%,,--,4563316193.64,4444294534.68,97.39%,119021658.96,2.61%,000513
2017-12-31,6307148290.33,4796338301.84,76.05%,1198591141.58,19.00%,9478343.5,0.15%,3518509977.99,55.79%,924905,0.01%,1510809988.49,23.95%,724810560.39,11.49%,327082256.2,5.19%,,--,,--,2850405411.17,1371627833.5,48.12%,1478777577.67,51.88%,000514
2017-09-30,5441190654.35,2338977950.72,42.99%,1859333447.79,34.17%,55555932.26,1.02%,60334313.11,1.11%,252596197.53,4.64%,3102212703.63,57.01%,1418135938,26.06%,520008024.8,9.56%,16275592.62,0.30%,,--,1820419187.14,1725117817.67,94.76%,95301369.47,5.24%,000516
2017-09-30,11669903464.95,10580085734.19,90.66%,998329110.11,8.55%,92380967.22,0.79%,7330878384.89,62.82%,3859772.4,0.03%,1089817730.76,9.34%,6435313.9,0.06%,1085485.47,0.01%,744308.27,0.01%,,--,7498438441.41,5103037066.59,68.05%,2395401374.82,31.95%,000517
2017-09-30,945937438.48,796969550.98,84.25%,38162381.36,4.03%,117651004.23,12.44%,604203095.66,63.87%,15133013.06,1.60%,148967887.5,15.75%,70317171.56,7.43%,36694537.85,3.88%,5483623.94,0.58%,,--,244849155.8,243191413.15,99.32%,1657742.65,0.68%,000518
2017-09-30,9890918961.75,6219973281.03,62.89%,2004420546.7,20.27%,961637296.15,9.72%,2163425100.92,21.87%,354120614.66,3.58%,3670945680.72,37.11%,2268992519.96,22.94%,567995275.6,5.74%,,--,,--,2482132009.32,2233980289.12,90.00%,248151720.2,10.00%,000519
2017-09-30,525747814.29,447692238.48,85.15%,188201279.09,35.80%,129740201.62,24.68%,14820699.71,2.82%,26965729.64,5.13%,78055575.81,14.85%,61127494.52,11.63%,,--,,--,,--,225122839.55,179868819.93,79.90%,45254019.62,20.10%,000520
2017-09-30,16383030571.27,13975801708.69,85.31%,4469883597.36,27.28%,1571813566.63,9.59%,2300644579.42,14.04%,300776799.7,1.84%,2407228862.58,14.69%,1261944649.05,7.70%,589379958.51,3.60%,4483750.69,0.03%,,--,11136120471.3,10407312243.69,93.46%,728808227.61,6.54%,000521
2017-09-30,4424060083.61,3617011091.06,81.76%,385629258.31,8.72%,2147251474.69,48.54%,458019731.88,10.35%,576097419.17,13.02%,807048992.55,18.24%,442889877.25,10.01%,57026123.05,1.29%,966755.41,0.02%,,--,2643891377.35,2598003481.68,98.26%,45887895.67,1.74%,000523
2017-09-30,4630675476.98,1656088371.01,35.76%,1151653146.56,24.87%,129073332.31,2.79%,26818021.56,0.58%,259948267.76,5.61%,2974587105.97,64.24%,579411777.42,12.51%,585980526.79,12.65%,237939925.12,5.14%,,--,2081026362.49,1504865054.73,72.31%,576161307.76,27.69%,000524
2017-09-30,11659172354.49,5838263676.35,50.07%,2315415532.97,19.86%,1199673665.7,10.29%,1531242913.57,13.13%,348438042.48,2.99%,5820908678.14,49.93%,3547082667.09,30.42%,466836432.49,4.00%,43190937.02,0.37%,,--,6458153272.21,5919548149.07,91.66%,538605123.14,8.34%,000525
2017-09-30,3737494603.27,1666557458.57,44.59%,798270013.16,21.36%,44510564.12,1.19%,,--,45905521.83,1.23%,2070937144.7,55.41%,148036854.63,3.96%,76685021.67,2.05%,126963884.93,3.40%,,--,3637458519.25,3619245127.78,99.50%,18213391.47,0.50%,000526
2017-09-30,21075965820.51,13515154092.31,64.13%,3880735685.74,18.41%,2985833134.47,14.17%,3217227258.6,15.26%,143818770.45,0.68%,7560811728.2,35.87%,2384789245.23,11.32%,632545461.52,3.00%,1309791.77,0.01%,,--,12010938777.12,10583941532.74,88.12%,1426997244.38,11.88%,000528
2017-09-30,1689594651.2,1101107286.01,65.17%,874825877.17,51.78%,15410701.83,0.91%,157236380,9.31%,16698476.82,0.99%,588487365.19,34.83%,168584397.76,9.98%,110216893.65,6.52%,12989148.84,0.77%,,--,371039429.64,368245535.93,99.25%,2793893.71,0.75%,000529
2017-09-30,5548758563.21,2249335845.64,40.54%,498472064.88,8.98%,977410445.06,17.61%,401726404.28,7.24%,138388679.82,2.49%,3299422717.57,59.46%,749937133.59,13.52%,133348743.11,2.40%,10655095.05,0.19%,,--,2086494709.75,1754865176.55,84.11%,331629533.2,15.89%,000530
2017-09-30,8867480110.91,2188017750.04,24.67%,1204656744.77,13.59%,324976358.83,3.66%,583216714.42,6.58%,21083753.66,0.24%,6679462360.87,75.33%,3085174361.12,34.79%,198848019.51,2.24%,75425212.38,0.85%,,--,4681007180.44,3016998657.47,64.45%,1664008522.97,35.55%,000531
2017-09-30,2112906340,564297208.14,26.71%,199122330.82,9.42%,108365810.05,5.13%,191802922.12,9.08%,4363845.11,0.21%,1548609131.86,73.29%,60865576.63,2.88%,157037221.05,7.43%,12087373.41,0.57%,,--,1306218903.64,952699082.63,72.94%,353519821.01,27.06%,000532
2017-09-30,4248972605.52,3316245408.8,78.05%,212708676.23,5.01%,1283456968.91,30.21%,614709942.55,14.47%,807635068.56,19.01%,932727196.72,21.95%,228286398.25,5.37%,259716117.49,6.11%,1281503.5,0.03%,,--,2095654573.24,1954668357.76,93.27%,140986215.48,6.73%,000533
2017-09-30,2259149278.65,1759967726.5,77.90%,361818804.19,16.02%,34883449.58,1.54%,753435927.36,33.35%,295734242.01,13.09%,499181552.15,22.10%,130210681.64,5.76%,80221464.75,3.55%,12080774.73,0.53%,,--,858393428.87,775830928.87,90.38%,82562500,9.62%,000534
2017-12-31,21018434518.85,9310215184.83,44.30%,6167991079.3,29.35%,2154000316.82,10.25%,551396968.18,2.62%,58968632.18,0.28%,11708219334.02,55.70%,6763302359.34,32.18%,297033309.36,1.41%,40840245,0.19%,,--,8181367745.14,7148669516.59,87.38%,1032698228.55,12.62%,000536
2017-09-30,20083891623.96,19478222904.03,96.98%,639981407.04,3.19%,2041666.65,0.01%,18330973910.54,91.27%,35151291.7,0.18%,605668719.93,3.02%,4224108.77,0.02%,,--,1079969.86,0.01%,,--,16584722947.07,13136522947.07,79.21%,3448200000,20.79%,000537
2017-09-30,26685400631.74,24144049806.29,90.48%,3044815693.64,11.41%,1509679144.84,5.66%,8572521487.42,32.12%,500685671.4,1.88%,2541350825.45,9.52%,1750790976.39,6.56%,291201409.97,1.09%,7929420.51,0.03%,,--,9078498200.2,7078155377.95,77.97%,2000342822.25,22.03%,000538
2017-09-30,70981629233,11778658756,16.59%,5044352779,7.11%,3081857781,4.34%,1600497054,2.25%,910240253,1.28%,59202970477,83.41%,39823939594,56.10%,1671805085,2.36%,28638368,0.04%,,--,41317965542,18308463226,44.31%,23009502316,55.69%,000539
2017-09-30,76229047674.74,54688525953.31,71.74%,6020743578.65,7.90%,3996928245.74,5.24%,35513051148.21,46.59%,1367069623.87,1.79%,21540521721.43,28.26%,3174706286.97,4.16%,151651913.8,0.20%,32654202.16,0.04%,,--,59718902402.34,21538941711.15,36.07%,38179960691.19,63.93%,000540
2017-09-30,5863350363.96,3326703314.56,56.74%,862717104.55,14.71%,835008250.2,14.24%,696098069.44,11.87%,45923008.15,0.78%,2536647049.4,43.26%,467695253.63,7.98%,157093681.84,2.68%,9476005.79,0.16%,,--,922633299.59,748157569.57,81.09%,174475730.02,18.91%,000541
2017-09-30,27102094190.96,2796197895.91,10.32%,1124412200.17,4.15%,1045417011.61,3.86%,116105409.65,0.43%,263241462.35,0.97%,24305896295.05,89.68%,13809430605.07,50.95%,530919240.33,1.96%,20974820.69,0.08%,,--,12498461733.37,5959973998.74,47.69%,6538487734.63,52.31%,000543
2017-09-30,6374656164.31,1376491127.25,21.59%,775753934.87,12.17%,392401683.99,6.16%,7997459.64,0.13%,14773908.66,0.23%,4998165037.06,78.41%,2773553250.91,43.51%,1741491966.55,27.32%,7615060.55,0.12%,,--,879153081.55,347592698.58,39.54%,531560382.97,60.46%,000544
2017-09-30,2684660658.83,1229258615.11,45.79%,188028792.32,7.00%,106408682.57,3.96%,236960337.02,8.83%,21935403.36,0.82%,1455402043.72,54.21%,1213477581.04,45.20%,64100134.72,2.39%,,--,,--,697211158.43,588122608.11,84.35%,109088550.32,15.65%,000545
2017-09-30,7546472729.9,3273154748.38,43.37%,677209386.61,8.97%,1002817001.94,13.29%,1147029486.48,15.20%,259982194.66,3.45%,4273317981.52,56.63%,3070431189.7,40.69%,218696868.97,2.90%,51367891.57,0.68%,,--,3825663089.41,2766192835.1,72.31%,1059470254.31,27.69%,000546
2017-09-30,7304862864.21,4022760228.62,55.07%,1390579842.93,19.04%,1521121241.23,20.82%,636631221.31,8.72%,185542537.92,2.54%,3282102635.59,44.93%,596624286.35,8.17%,267243306.22,3.66%,2586011.24,0.04%,,--,1723618859.92,1233900278.62,71.59%,489718581.3,28.41%,000547
2017-09-30,2040807510,1424555723.08,69.80%,522888030.67,25.62%,39426969.26,1.93%,773506597.78,37.90%,24165201.46,1.18%,616251786.92,30.20%,248145677,12.16%,277907403.47,13.62%,29053420.14,1.42%,,--,391153816.34,389090791.97,99.47%,2063024.37,0.53%,000548
2017-09-30,23685847675,15582618484,65.79%,9262070560,39.10%,1675973639,7.08%,2299946672,9.71%,626727057,2.65%,8103229191,34.21%,5582587027,23.57%,760744514,3.21%,,--,,--,11159641013,10919228363,97.85%,240412650,2.15%,000550
2017-09-30,4136124534.94,2584782888.64,62.49%,772300479.88,18.67%,561602128.5,13.58%,893040962.17,21.59%,215330312.84,5.21%,1551341646.3,37.51%,796811805.14,19.26%,147360623.89,3.56%,1402417.27,0.03%,,--,2004519327.23,1813776624.88,90.48%,190742702.35,9.52%,000551
2017-09-30,9807381790.5,4915779117.24,50.12%,1983973802.87,20.23%,645490015.11,6.58%,274856794.81,2.80%,71894592.65,0.73%,4891602673.26,49.88%,2912214098.22,29.69%,1630079078.2,16.62%,,--,,--,3014402820.14,2991170845.5,99.23%,23231974.64,0.77%,000552
2017-09-30,37271636000,20857749000,55.96%,4347329000,11.66%,5926108000,15.90%,7412717000,19.89%,204574000,0.55%,16413887000,44.04%,6466169000,17.35%,4212298000,11.30%,,--,,--,19766160000,10285888000,52.04%,9480272000,47.96%,000553
2017-09-30,1107119795.04,160023034.04,14.45%,49321856.09,4.45%,3073105,0.28%,85729940.93,7.74%,4188019.18,0.38%,947096761,85.55%,465039753.72,42.00%,312423845.65,28.22%,59385187.18,5.36%,,--,186655854.01,172077248.41,92.19%,14578605.6,7.81%,000554
2017-09-30,9410858474.84,6270681557.47,66.63%,793215265.08,8.43%,3283991826.93,34.90%,1410072657.74,14.98%,82251495.04,0.87%,3140176917.37,33.37%,641288134.02,6.81%,129949050.39,1.38%,28923899.4,0.31%,,--,4628776533.73,4476964553.53,96.72%,151811980.2,3.28%,000555
2017-09-30,5048215408.31,820353958.04,16.25%,439736050,8.71%,35402712,0.70%,72106018.89,1.43%,10823885.08,0.21%,4227861450.27,83.75%,3451005106.9,68.36%,501300896.07,9.93%,449802.48,0.01%,,--,1075006753.37,900786099.73,83.79%,174220653.64,16.21%,000557
2017-09-30,2453718364.04,1261678391.1,51.42%,253074945.8,10.31%,5200250.97,0.21%,639854424.7,26.08%,255295524.82,10.40%,1192039972.94,48.58%,262244030.27,10.69%,6823763.49,0.28%,13062516.13,0.53%,,--,1085523902.1,548723902.1,50.55%,536800000,49.45%,000558
2017-09-30,11070646448.95,6657414912.56,60.14%,1406118440.01,12.70%,1776048171.58,16.04%,1749061985.22,15.80%,289067727.31,2.61%,4413231536.39,39.86%,2871029660.95,25.93%,194376560.22,1.76%,11926421.84,0.11%,,--,5916593818.14,5087674434.49,85.99%,828919383.65,14.01%,000559
2017-09-30,6431830757.47,3028775999.16,47.09%,755575657.09,11.75%,58535963.02,0.91%,940984245.45,14.63%,19040974.61,0.30%,3403054758.31,52.91%,275584732.69,4.28%,495544949.86,7.70%,38604827.51,0.60%,,--,2615737450.29,945283179.62,36.14%,1670454270.67,63.86%,000560
2017-09-30,2450684389.81,1926100614.8,78.59%,256881781.19,10.48%,731462137.97,29.85%,712292136.54,29.07%,37069512.3,1.51%,524583775.01,21.41%,175343250.59,7.15%,68467680.04,2.79%,6095625.9,0.25%,,--,1128447865.55,962113371.21,85.26%,166334494.34,14.74%,000561
2017-09-30,10377422399.28,2007144678.73,19.34%,779830288.74,7.51%,,--,,--,,--,8370277720.55,80.66%,76546841.68,0.74%,1827460.56,0.02%,,--,,--,2525621882.41,2518723648.7,99.73%,6898233.71,0.27%,000563
2017-09-30,54735926964.07,30469684734.17,55.67%,18183141891.31,33.22%,540934741.54,0.99%,7984008432.41,14.59%,838661607.85,1.53%,24266242229.9,44.33%,5233954863.51,9.56%,1724803725.32,3.15%,399155923.49,0.73%,,--,23749918675.03,17540987068.99,73.86%,6208931606.04,26.14%,000564
2017-09-30,1507576808.84,833990521.32,55.32%,86560431.48,5.74%,183207676.55,12.15%,102509447.84,6.80%,362351726.84,24.04%,673586287.52,44.68%,245114627.7,16.26%,21879966.9,1.45%,,--,,--,480462857.51,442707337.78,92.14%,37755519.73,7.86%,000565
2017-09-30,10537346841.28,6389619524.14,60.64%,3365348956.86,31.94%,489142675.8,4.64%,519940151.61,4.93%,99213964.46,0.94%,4147727317.14,39.36%,1110547641.19,10.54%,473565874.58,4.49%,8301733.56,0.08%,,--,4938528070.17,2696439375.46,54.60%,2242088694.71,45.40%,000566
2017-09-30,2257139712.6,1976122402.73,87.55%,219788757.03,9.74%,,--,,--,639770.22,0.03%,281017309.87,12.45%,6305371.48,0.28%,,--,,--,,--,1986358202.67,1286358202.67,64.76%,700000000,35.24%,000567
2017-09-30,17971569041.71,13349522175.41,74.28%,7599866037.94,42.29%,6217910.64,0.03%,2682804005.01,14.93%,479453284.1,2.67%,4622046866.3,25.72%,1084178777.95,6.03%,231310406,1.29%,,--,,--,3180568502.23,3092686202.76,97.24%,87882299.47,2.76%,000568
2017-09-30,3796065908.97,2219634520.52,58.47%,581255578.83,15.31%,789836525.99,20.81%,384506437.61,10.13%,25542981.62,0.67%,1576431388.45,41.53%,573909634.56,15.12%,103370216.25,2.72%,,--,,--,1468798713.38,1284146581.3,87.43%,184652132.08,12.57%,000570
2017-09-30,4995978760.97,1798772354.7,36.00%,606256874.94,12.13%,275965274.08,5.52%,150363030.41,3.01%,104288583.38,2.09%,3197206406.27,64.00%,1506712563.08,30.16%,296185039.52,5.93%,10083193.24,0.20%,,--,2061848354.82,1532925051.53,74.35%,528923303.29,25.65%,000571
2017-09-30,16454408087.54,6025964049.3,36.62%,2205091937.92,13.40%,667247280.23,4.06%,1588253723.88,9.65%,291360923.14,1.77%,10428444038.24,63.38%,2762432787.82,16.79%,1517982694.82,9.23%,,--,,--,6901018952.62,6728598253.1,97.50%,172420699.52,2.50%,000572
2017-09-30,2892719973.63,2086325690.01,72.12%,828489650.18,28.64%,11425081.75,0.39%,1124896996.41,38.89%,2926593.28,0.10%,806394283.62,27.88%,46381648.41,1.60%,162024474.41,5.60%,2423161.7,0.08%,,--,1182036687.13,577102283.53,48.82%,604934403.6,51.18%,000573
2017-09-30,1589928298.95,644436038.17,40.53%,106721506.03,6.71%,37401401.17,2.35%,71702561.21,4.51%,65594245.07,4.13%,945492260.78,59.47%,591824289.27,37.22%,98419668.49,6.19%,26000000.06,1.64%,,--,317415527.42,73936783.96,23.29%,243478743.46,76.71%,000576
2017-09-30,18875841570.78,11065501795.38,58.62%,1448916925.29,7.68%,1732587749.22,9.18%,1289840959.12,6.83%,107034320.5,0.57%,7810339775.4,41.38%,2427099320.35,12.86%,336012203.11,1.78%,14713419.1,0.08%,,--,4248949997.98,3536528107.4,83.23%,712421890.58,16.77%,000581
2017-12-31,12839626185.52,1988645035.05,15.49%,826314928.8,6.44%,403115864.94,3.14%,75221972.87,0.59%,56740208.16,0.44%,10850981150.47,84.51%,8071359832.43,62.86%,1839698273.97,14.33%,31242467.46,0.24%,,--,4951363067.4,2580880465.78,52.12%,2370482601.62,47.88%,000582
2017-09-30,3571399400.88,2269279551.12,63.54%,396257694.78,11.10%,383838203.79,10.75%,976995266.54,27.36%,144076245.14,4.03%,1302119849.76,36.46%,411590129.84,11.52%,63053956.75,1.77%,7843381.25,0.22%,,--,1921467436.25,1589493905.86,82.72%,331973530.39,17.28%,000584
2017-09-30,340035683.37,198371262.09,58.34%,27935689.34,8.22%,126022434.53,37.06%,15756740.63,4.63%,10359362.39,3.05%,141664421.28,41.66%,39144453.22,11.51%,16763889.45,4.93%,1787693.01,0.53%,,--,159302820.11,84211450.65,52.86%,75091369.46,47.14%,000585
2017-09-30,561050495.03,473867579.01,84.46%,126239465,22.50%,203392243.31,36.25%,106441169.8,18.97%,5301199.34,0.94%,87182916.02,15.54%,31019211.47,5.53%,20444511.35,3.64%,325711.87,0.06%,,--,301126238.45,280573938.47,93.17%,20552299.98,6.83%,000586
2017-09-30,36339838969.11,14359556268.05,39.51%,4089453804.89,11.25%,1202815713.22,3.31%,2324456361.72,6.40%,266809434.29,0.73%,21980282701.06,60.49%,59128688.79,0.16%,6216384.78,0.02%,78340812.1,0.22%,,--,26289809175.21,17240845698.05,65.58%,9048963477.16,34.42%,000587
2017-09-30,9608692012.3,4493447790.18,46.76%,1153977259.34,12.01%,1231725214.03,12.82%,812864759.47,8.46%,298883457.5,3.11%,5115244222.12,53.24%,3642610660.17,37.91%,296573263.14,3.09%,170554285.27,1.78%,,--,6052717288.13,4776151881.08,78.91%,1276565407.05,21.09%,000589
2017-09-30,815603225.6,457110128.5,56.05%,103787433.5,12.73%,7804139.97,0.96%,77620624.7,9.52%,819111.52,0.10%,358493097.1,43.95%,135969091.92,16.67%,168783406.12,20.69%,4667365.79,0.57%,,--,259620072.97,129248270.56,49.78%,130371802.41,50.22%,000590
2017-09-30,32634665051.14,8006540927.76,24.53%,1338583720.04,4.10%,4817472400.57,14.76%,170667162.85,0.52%,234128776.58,0.72%,24628124123.38,75.47%,19936627483.28,61.09%,398262220.41,1.22%,112058709.29,0.34%,,--,20570745745.9,6719052461.23,32.66%,13851693284.67,67.34%,000591
2017-09-30,4367716789.47,3153143813.56,72.19%,371853071.24,8.51%,223774587.77,5.12%,1407544445.18,32.23%,136693289.43,3.13%,1214572975.91,27.81%,210428670.12,4.82%,50090391.26,1.15%,7479253,0.17%,,--,858525506.28,729784872.84,85.00%,128740633.44,15.00%,000592
2017-09-30,1663812187.54,392809177,23.61%,111513359.3,6.70%,115114375.44,6.92%,61372612.89,3.69%,46677526.02,2.81%,1271003010.54,76.39%,355460833.32,21.36%,44580169.07,2.68%,11634402.17,0.70%,,--,555426376.46,209267828.77,37.68%,346158547.69,62.32%,000593
2017-09-30,1461169523.16,779943208.86,53.38%,34121429.39,2.34%,400489301.7,27.41%,258251412.76,17.67%,44381123.22,3.04%,681226314.3,46.62%,320496827.99,21.93%,147497563.41,10.09%,317034.03,0.02%,,--,769917682.21,563050090.02,73.13%,206867592.19,26.87%,000595
2017-09-30,9995172521.06,5825267571.32,58.28%,715513494.38,7.16%,20524908.75,0.21%,1810936606.32,18.12%,97102117.42,0.97%,4169904949.74,41.72%,1794083695.11,17.95%,692438826.77,6.93%,68752085.13,0.69%,,--,3527189459.97,3364148177.45,95.38%,163041282.52,4.62%,000596
2017-09-30,10291946867.33,5386189762.81,52.33%,2048976589.3,19.91%,1451012544.23,14.10%,1039184135.05,10.10%,162856727.73,1.58%,4905757104.52,47.67%,3065367272.45,29.78%,731244014.74,7.11%,2100902.01,0.02%,,--,7764690174.85,5362801189.29,69.07%,2401888985.56,30.93%,000597
2017-09-30,17894108973.83,3113250032.97,17.40%,1688464077.49,9.44%,688162904.22,3.85%,356495631.98,1.99%,22954941.43,0.13%,14780858940.86,82.60%,6357949735.69,35.53%,3859218558.93,21.57%,3050957.12,0.02%,,--,7894917374.86,4041615478.99,51.19%,3853301895.87,48.81%,000598
2017-09-30,7824443857.05,3829788397.29,48.95%,540193715.47,6.90%,1307594506.32,16.71%,1275538472.67,16.30%,222061517.2,2.84%,3994655459.76,51.05%,1676942260.41,21.43%,345721188.26,4.42%,6093947.19,0.08%,,--,5032725255.76,3655848416.2,72.64%,1376876839.56,27.36%,000599
2017-09-30,29058762199.56,4599081926.67,15.83%,1528009743.65,5.26%,1012269759.73,3.48%,388850027.73,1.34%,712332240.9,2.45%,24459680272.89,84.17%,15309994475.43,52.69%,772431096.28,2.66%,1766790.58,0.01%,,--,16505833074.3,7636497107.56,46.27%,8869335966.74,53.73%,000600
2017-09-30,9563358967.38,2008225637.62,21.00%,865581893.76,9.05%,400386307.45,4.19%,312748486.42,3.27%,182091391.92,1.90%,7555133329.76,79.00%,6950883176.12,72.68%,174419193.6,1.82%,14211626.56,0.15%,,--,4863733031.24,2013625922.55,41.40%,2850107108.69,58.60%,000601
2017-09-30,2975098739.59,901235454.26,30.29%,669996647.24,22.52%,977614.31,0.03%,36026444.47,1.21%,159816058.23,5.37%,2073863285.33,69.71%,189919139.51,6.38%,289450368.4,9.73%,21942878,0.74%,,--,464424283.98,453336363.88,97.61%,11087920.1,2.39%,000603
2017-09-30,5517533570.48,1445200298.54,26.19%,444795693.86,8.06%,537063205.92,9.73%,163117530.9,2.96%,128751946.32,2.33%,4072333271.94,73.81%,1065949705.9,19.32%,1927343828.58,34.93%,113244181.56,2.05%,,--,3056756915.05,2234642056.49,73.10%,822114858.56,26.90%,000605
2017-09-30,3968092712.41,890051200.65,22.43%,558300489.94,14.07%,87113454.69,2.20%,103228239.24,2.60%,56091854.7,1.41%,3078041511.76,77.57%,405222487.07,10.21%,119141908.76,3.00%,6611059.56,0.17%,,--,1056466580.03,263888798.09,24.98%,792577781.94,75.02%,000606
2017-09-30,3083887455.45,1582725426.87,51.32%,420782632.77,13.64%,574067154.57,18.62%,38291423.35,1.24%,59549547.74,1.93%,1501162028.58,48.68%,213542483.16,6.92%,35977697.2,1.17%,13616802.35,0.44%,,--,992326197.17,916763223.18,92.39%,75562973.99,7.61%,000607
2017-09-30,7364974000,2148417000,29.17%,1253003000,17.01%,59232000,0.80%,739457000,10.04%,39927000,0.54%,5216557000,70.83%,11544000,0.16%,12136000,0.16%,5630000,0.08%,,--,3544257000,864560000,24.39%,2679697000,75.61%,000608
2017-09-30,1763157882.45,1528950243.77,86.72%,78909392.13,4.48%,22541.08,0.00%,319957534.86,18.15%,698642.91,0.04%,234207638.68,13.28%,7586358.23,0.43%,,--,,--,,--,203348598.84,203341753.06,100.00%,6845.78,0.00%,000609
2017-09-30,1526417720.91,906340691.15,59.38%,336213318.8,22.03%,49910427.64,3.27%,346802790.88,22.72%,8737240.39,0.57%,620077029.76,40.62%,227722149.82,14.92%,83205792.99,5.45%,922604.29,0.06%,,--,700232664.94,675284173.55,96.44%,24948491.39,3.56%,000610
2017-09-30,754175295.48,536087644.98,71.08%,4158918.42,0.55%,9452002.23,1.25%,14456929.02,1.92%,501809186.4,66.54%,218087650.5,28.92%,35974390.12,4.77%,,--,,--,,--,225057937.04,225057937.04,100.00%,,--,000611
2017-09-30,7356931869.25,1397379336.78,18.99%,340019132.07,4.62%,34599939.97,0.47%,749329205.8,10.19%,158318842.63,2.15%,5959552532.47,81.01%,2575054060.56,35.00%,29443625.72,0.40%,,--,,--,2551665028.72,1942260167.66,76.12%,609404861.06,23.88%,000612
2017-12-31,87466661.8,13823295.9,15.80%,9681607.16,11.07%,594130.89,0.68%,227005.11,0.26%,49530.21,0.06%,73643365.9,84.20%,39088708.83,44.69%,23017636.2,26.32%,2678016.88,3.06%,,--,10331247.7,8841562.66,85.58%,1489685.04,14.42%,000613
2017-09-30,9762975141.49,8685141081.3,88.96%,864579301.72,8.86%,104032500.69,1.07%,6706566166.73,68.69%,69241516.59,0.71%,1077834060.19,11.04%,471525287.8,4.83%,150387414.24,1.54%,,--,,--,7853911249.55,5887585854.28,74.96%,1966325395.27,25.04%,000615
2017-09-30,10229403518.3,7382698170.16,72.17%,2982598837.83,29.16%,94788734.54,0.93%,3939435473.75,38.51%,303331029.43,2.97%,2846705348.14,27.83%,6675832.19,0.07%,63307.59,0.00%,111604.5,0.00%,,--,5883469352.04,590745623.22,10.04%,5292723728.82,89.96%,000616
2017-09-30,837123976053.12,545181784586.92,65.13%,201170015711.86,24.03%,28555277.15,0.00%,,--,32359664.75,0.00%,291942191466.2,34.87%,7539227637.35,0.90%,473508208.09,0.06%,92770555.65,0.01%,,--,706537089879.75,674360519554.27,95.45%,32176570325.48,4.55%,000617
2017-09-30,3537557974.71,1866034119.71,52.75%,262643185.94,7.42%,229532023.24,6.49%,514492248.66,14.54%,63169918.2,1.79%,1671523855,47.25%,1332840606.15,37.68%,244890756.26,6.92%,787142.29,0.02%,,--,910940018.46,837838036.02,91.98%,73101982.44,8.02%,000619
2017-09-30,48593310245.12,34189465070.54,70.36%,7844559585.12,16.14%,364253363.43,0.75%,23855921949.78,49.09%,652721644.28,1.34%,14403845174.58,29.64%,3938689862.84,8.11%,1211219557.65,2.49%,278898244.79,0.57%,,--,40944918287.84,23539427540.47,57.49%,17405490747.37,42.51%,000620
2017-09-30,403484918.57,378883973.79,93.90%,205039164.15,50.82%,20779843.41,5.15%,23645212.32,5.86%,2031237.61,0.50%,24600944.78,6.10%,21692907.99,5.38%,,--,1284977.95,0.32%,,--,204256454.91,147730351.89,72.33%,56526103.02,27.67%,000622
2017-09-30,21642769494.89,3266071179.53,15.09%,1410252441.38,6.52%,732038187.74,3.38%,504038275.87,2.33%,38213835.37,0.18%,18376698315.36,84.91%,2076112805.95,9.59%,289978008.26,1.34%,3364381.89,0.02%,,--,1388392501.21,957298803.83,68.95%,431093697.38,31.05%,000623
2017-09-30,104378966918.19,62187861165.7,59.58%,23992054116.41,22.99%,1996493767.72,1.91%,9876174546.32,9.46%,1832125076.29,1.76%,42191105752.49,40.42%,16139027565.57,15.46%,4071393778.88,3.90%,13901562.88,0.01%,,--,58223259894.7,51646682721.33,88.70%,6576577173.37,11.30%,000625
2017-09-30,12523088088.17,12077592491.4,96.44%,6530589747.76,52.15%,629736505.16,5.03%,1726497200.14,13.79%,1294066322.7,10.33%,445495596.77,3.56%,53749710.42,0.43%,20348520.38,0.16%,24842268.61,0.20%,,--,9245894720.09,9156133390.13,99.03%,89761329.96,0.97%,000626
2017-09-30,129562843784.56,,--,7456142733.41,5.75%,34193032.39,0.03%,,--,,--,,--,504156991.38,0.39%,530698091.84,0.41%,,--,,--,108735155988.91,,--,,--,000627
2017-09-30,3420230962.67,2951129980.73,86.28%,1479853550.75,43.27%,412699763.63,12.07%,413485449.78,12.09%,7935666.6,0.23%,469100981.94,13.72%,136720398.27,4.00%,63668232.2,1.86%,5188821.8,0.15%,,--,2672404734.73,2546852352.35,95.30%,125552382.38,4.70%,000628
2017-09-30,9998022258.64,3794227622.26,37.95%,1104921598.37,11.05%,161286760.87,1.61%,838151536.81,8.38%,212776819.99,2.13%,6203794636.38,62.05%,4429351111.8,44.30%,329338953.15,3.29%,21296690.32,0.21%,,--,5674335031.75,4895154316.7,86.27%,779180715.05,13.73%,000629
2017-09-30,47506353475.9,24872641768.95,52.36%,7105750455.86,14.96%,1372861158.13,2.89%,9268213971.62,19.51%,3893233142.16,8.20%,22633711706.95,47.64%,15223260707.83,32.04%,1890993104.56,3.98%,6531614.13,0.01%,,--,29053652144.56,25934461969.02,89.26%,3119190175.54,10.74%,000630
2017-09-30,13946562786.82,12107463886.88,86.81%,7579686665.91,54.35%,94473913.79,0.68%,3439212107.55,24.66%,5623704.72,0.04%,1839098899.94,13.19%,10247629.18,0.07%,65805.28,0.00%,,--,,--,7955753173.07,5114774960.49,64.29%,2840978212.58,35.71%,000631
2017-09-30,7427578395.04,4813082043.3,64.80%,1485052957.19,19.99%,99208484.03,1.34%,1979644374.73,26.65%,1052849823.31,14.17%,2614496351.74,35.20%,355672305.28,4.79%,1943055.84,0.03%,4674179.01,0.06%,,--,6017761818.85,4936586853.12,82.03%,1081174965.73,17.97%,000632
2017-09-30,978989903.87,571483800.31,58.37%,510849719.04,52.18%,20657092.12,2.11%,18774656.37,1.92%,12782414.72,1.31%,407506103.56,41.63%,101570043.81,10.37%,14822116.39,1.51%,1476000,0.15%,,--,813022602.29,64671104.32,7.95%,748351497.97,92.05%,000633
2017-09-30,3481029608.61,1439215389.84,41.34%,621188067.71,17.84%,1375983.84,0.04%,210036523.15,6.03%,5962335.28,0.17%,2041814218.77,58.66%,1923213365.32,55.25%,80093209.14,2.30%,,--,,--,480166673.58,453695417.77,94.49%,26471255.81,5.51%,000635
2017-09-30,6609180394.4,2841085838.91,42.99%,589641289.53,8.92%,848483621.03,12.84%,583243864.5,8.82%,18164742.71,0.27%,3768094555.49,57.01%,1810297219.6,27.39%,129674699.73,1.96%,103475216.48,1.57%,,--,1950539043.14,1627042543.67,83.42%,323496499.47,16.58%,000636
2017-09-30,1178429805.53,699367715,59.35%,149142922.98,12.66%,20150639.39,1.71%,158379543.37,13.44%,174950780.94,14.85%,479062090.53,40.65%,340470695.74,28.89%,,--,3044740.79,0.26%,,--,209076435.71,162796635.16,77.86%,46279800.55,22.14%,000637
2017-09-30,1592716029.25,1184708411.79,74.38%,129280330.24,8.12%,42764285.4,2.68%,864710445.07,54.29%,61612826.13,3.87%,408007617.46,25.62%,3919868.47,0.25%,92248625.11,5.79%,,--,,--,1263125491.41,1162421022.14,92.03%,100704469.27,7.97%,000638
2017-09-30,6527017659.48,1907397722.21,29.22%,309581641.88,4.74%,434648366.78,6.66%,1011539915.07,15.50%,84802863.94,1.30%,4619619937.27,70.78%,719565278.74,11.02%,1133939697.34,17.37%,4082751.75,0.06%,,--,3484051662.4,1974388400.58,56.67%,1509663261.82,43.33%,000639
2017-09-30,4035909566.2,2220042048.96,55.01%,1030434512.88,25.53%,553942373.32,13.73%,378430167.67,9.38%,104623178.19,2.59%,1815867517.24,44.99%,629078383.66,15.59%,365827097.14,9.06%,6982339.8,0.17%,,--,666095316.21,651804998.33,97.85%,14290317.88,2.15%,000650
2017-09-30,220723782752.19,174675486108.58,79.14%,93379231775.14,42.31%,4813254632.46,2.18%,13117891015.03,5.94%,4930263273.03,2.23%,46048296643.61,20.86%,17277720521.72,7.83%,3579083856.87,1.62%,1625752.55,0.00%,,--,160983359222.29,160471782713.9,99.68%,511576508.39,0.32%,000651
2017-09-30,33787365557.7,26458650718.62,78.31%,5368204022.28,15.89%,2366413809.59,7.00%,15441257763.08,45.70%,1838516581.42,5.44%,7328714839.08,21.69%,435952679.91,1.29%,1239786818.68,3.67%,35112862.16,0.10%,,--,29443394476.58,19716871339.4,66.97%,9726523137.18,33.03%,000652
2017-09-30,3068237973.57,1057815672.57,34.48%,199846237.97,6.51%,115440092.07,3.76%,68262930.91,2.22%,27603564.93,0.90%,2010422301,65.52%,430841899.57,14.04%,402291001.21,13.11%,24261621.98,0.79%,,--,344886971.38,342533587.75,99.32%,2353383.63,0.68%,000655
2017-09-30,142186345708.87,130865875910.34,92.04%,15503078947.93,10.90%,817669130.88,0.58%,93107800928.66,65.48%,7633315424.61,5.37%,11320469798.53,7.96%,2444871839.16,1.72%,60016363.48,0.04%,25141965.8,0.02%,,--,120638078741.73,64357207060.46,53.35%,56280871681.27,46.65%,000656
2017-09-30,7297798603.72,4166977434.04,57.10%,818185030.13,11.21%,1133955319.73,15.54%,1623563051.62,22.25%,107788888.57,1.48%,3130821169.68,42.90%,2185628851.9,29.95%,580950606.49,7.96%,14633115.49,0.20%,,--,3619818939.1,2861180673.94,79.04%,758638265.16,20.96%,000657
2017-09-30,2681821700.72,860834327.89,32.10%,101781790.61,3.80%,389898699.85,14.54%,199922061.14,7.45%,95496967.56,3.56%,1820987372.83,67.90%,1451188641.69,54.11%,95475775.36,3.56%,32819952.06,1.22%,,--,2168719109.89,838503298.31,38.66%,1330215811.58,61.34%,000659
2017-12-31,7351435296.77,5257266632.74,71.51%,1390292603.27,18.91%,537502354,7.31%,1840099183.15,25.03%,281399143.86,3.83%,2094168664.03,28.49%,1115945289.06,15.18%,168571343.85,2.29%,6741766.06,0.09%,,--,2151099827.31,1973682797.3,91.75%,177417030.01,8.25%,000661
2017-09-30,5847970923.69,1656291902.88,28.32%,239431662.94,4.09%,1157921398.26,19.80%,30815294.72,0.53%,222099702.06,3.80%,4191679020.81,71.68%,1981797.79,0.03%,50862324.43,0.87%,9912880.07,0.17%,,--,674438375.57,666671775.85,98.85%,7766599.72,1.15%,000662
2017-09-30,4242576379.35,2002323902.91,47.20%,202578020.9,4.77%,668188707.13,15.75%,819950773.7,19.33%,144533506.61,3.41%,2240252476.44,52.80%,761392621.3,17.95%,128324200.33,3.02%,13107758.54,0.31%,,--,2048453478.03,1642639590.02,80.19%,405813888.01,19.81%,000663
2017-09-30,8699554022.17,1011248550.26,11.62%,347839377.86,4.00%,184886667.4,2.13%,24928994.73,0.29%,44364346.01,0.51%,7688305471.91,88.38%,4788231746.77,55.04%,122702138.27,1.41%,460436386.19,5.29%,,--,2704957489.29,2627744010.01,97.15%,77213479.28,2.85%,000665
2017-09-30,37058209014.81,18564363275.74,50.10%,13103882057.68,35.36%,1147694909.76,3.10%,839086845.33,2.26%,351228446.13,0.95%,18493845739.07,49.90%,1496218482.13,4.04%,432165790.86,1.17%,30424192.43,0.08%,,--,19489912645.93,12303539877.66,63.13%,7186372768.27,36.87%,000666
2017-09-30,16758497603.76,15633761229.05,93.29%,1646961413.39,9.83%,36963098.96,0.22%,11526322241.42,68.78%,1272716525.24,7.59%,1124736374.71,6.71%,339975569.86,2.03%,9658063.38,0.06%,391608.74,0.00%,,--,9764657502.64,6232747283.43,63.83%,3531910219.21,36.17%,000667
2017-09-30,1950547194.62,1882836505.54,96.53%,193736456.61,9.93%,58399.56,0.00%,1614120512.98,82.75%,8399595.59,0.43%,67710689.08,3.47%,3524160.78,0.18%,61135.52,0.00%,568046.87,0.03%,,--,1289980109.34,467010109.34,36.20%,822970000,63.80%,000668
2017-09-30,12728486676.15,2206838005.15,17.34%,578071023.74,4.54%,714092819.64,5.61%,100514782.49,0.79%,354113723.59,2.78%,10521648671,82.66%,5259185438.9,41.32%,573200405.59,4.50%,45010839.98,0.35%,,--,8235592711.96,4860560350.15,59.02%,3375032361.81,40.98%,000669
2017-09-30,740528737.55,336633238.06,45.46%,23712029.58,3.20%,185493198.96,25.05%,55685335.85,7.52%,48930584,6.61%,403895499.49,54.54%,141847544.12,19.15%,109532141.69,14.79%,515969.85,0.07%,,--,61896245.83,58644914,94.75%,3251331.83,5.25%,000670
2017-09-30,196386064796.54,180932083181.54,92.13%,27570640766.59,14.04%,306916116.05,0.16%,125897816526.86,64.11%,9044102608.58,4.61%,15453981615,7.87%,730099350.33,0.37%,105584859.01,0.05%,12482192.32,0.01%,,--,169485167964.58,108229725000.17,63.86%,61255442964.41,36.14%,000671
2017-09-30,6241034303.4,2653141236.39,42.51%,751027084.96,12.03%,121880044.83,1.95%,1332159080.04,21.35%,102252753.15,1.64%,3587893067.01,57.49%,2271904572.16,36.40%,668172027.27,10.71%,13529561.6,0.22%,,--,4215395436.8,3795570156.02,90.04%,419825280.78,9.96%,000672
2017-09-30,3687236198.39,2441135219.69,66.21%,226573096.13,6.14%,608357788.36,16.50%,471857124.02,12.80%,891214505.74,24.17%,1246100978.7,33.79%,83018941.39,2.25%,215260.57,0.01%,110832082.84,3.01%,,--,1087917529.65,877867888.06,80.69%,210049641.59,19.31%,000673
2017-09-30,7398883601.13,4365240195.44,59.00%,1371523937.72,18.54%,1111988408.54,15.03%,,--,622273029.85,8.41%,3033643405.69,41.00%,9172445.64,0.12%,396880485.05,5.36%,10723848.74,0.14%,,--,2515377786.3,1934366315.84,76.90%,581011470.46,23.10%,000676
2017-09-30,848036158.36,353417581.7,41.67%,60664468.59,7.15%,131646517.2,15.52%,57917317.21,6.83%,51619606.72,6.09%,494618576.66,58.33%,388092053.95,45.76%,85097386.2,10.03%,,--,,--,196238718.08,175395708.49,89.38%,20843009.59,10.62%,000677
2017-09-30,2696673897.27,1077647327.08,39.96%,119127225.09,4.42%,291278611.19,10.80%,496595994.25,18.42%,31403844.53,1.16%,1619026570.19,60.04%,1020535557.47,37.84%,338663174.3,12.56%,416542.35,0.02%,,--,1388416206.32,1095485725.71,78.90%,292930480.61,21.10%,000678
2017-09-30,6301783405.5,5094806359.93,80.85%,1028856076.06,16.33%,65459659.87,1.04%,3884307040.17,61.64%,4412287,0.07%,1206977045.57,19.15%,285487197.82,4.53%,156896155.05,2.49%,5090891.78,0.08%,,--,4781656472.95,3531443897.1,73.85%,1250212575.85,26.15%,000679
2017-09-30,9292670892.36,5671037446.87,61.03%,1346561871.49,14.49%,1831299568.15,19.71%,1369670753.3,14.74%,274955960.99,2.96%,3621633445.49,38.97%,1757688479.11,18.91%,584324725.83,6.29%,146229.14,0.00%,,--,5698026738.66,5417350141.54,95.07%,280676597.12,4.93%,000680
2017-09-30,3863997044.75,886261982.39,22.94%,321314498.46,8.32%,248746416.89,6.44%,29393692.16,0.76%,18195589.2,0.47%,2977735062.36,77.06%,4304940.92,0.11%,9747641.48,0.25%,196111.45,0.01%,,--,1386923609.49,518773116.01,37.40%,868150493.48,62.60%,000681
2017-09-30,4605385225.29,3668060234.61,79.65%,1205812210.38,26.18%,1115289785.48,24.22%,964681897.27,20.95%,97691818.33,2.12%,937324990.68,20.35%,593670940.66,12.89%,98932921.81,2.15%,7750909.49,0.17%,,--,1532633206.18,1433801517.18,93.55%,98831689,6.45%,000682
2017-12-31,22038382607.56,6123711555.19,27.79%,4328306336.38,19.64%,177107530.55,0.80%,210011854.91,0.95%,242457031.34,1.10%,15914671052.37,72.21%,9265434607.56,42.04%,944566862.34,4.29%,41186230.49,0.19%,,--,11507708223.94,10323256557.33,89.71%,1184451666.61,10.29%,000683
2017-09-30,15649733908.93,2005392520.79,12.81%,779790611.93,4.98%,400154816.68,2.56%,144584084.16,0.92%,17338681.51,0.11%,13644341388.14,87.19%,1538846100.57,9.83%,788745517.64,5.04%,27885248.73,0.18%,,--,3538866954.69,2469319331.24,69.78%,1069547623.45,30.22%,000685
2017-09-30,67981081800.18,,--,13012813431.88,19.14%,168215908.48,0.25%,,--,,--,,--,706021628.24,1.04%,189883746.74,0.28%,,--,,--,51102972982.99,,--,,--,000686
2017-09-30,3844938701.01,2430932143.63,63.22%,707945198.78,18.41%,951743880.71,24.75%,79559914.12,2.07%,610166147.03,15.87%,1414006557.38,36.78%,50920169.73,1.32%,35070325.74,0.91%,11929529.55,0.31%,,--,2447817167.3,1443137005.19,58.96%,1004680162.11,41.04%,000687
2017-09-30,2300681320.38,904556528.83,39.32%,680069401.74,29.56%,112938297.67,4.91%,57597062.14,2.50%,16175653.29,0.70%,1396124791.55,60.68%,617426272.29,26.84%,82547780.01,3.59%,5959569.07,0.26%,,--,162640340.23,128653781.64,79.10%,33986558.59,20.90%,000688
2017-09-30,16401201183.91,3804543329.04,23.20%,1703346687.51,10.39%,199418286.37,1.22%,149857150.02,0.91%,,--,12596657854.87,76.80%,3742332310.15,22.82%,609085913.96,3.71%,25475746.84,0.16%,,--,7909217997.64,883294154.98,11.17%,7025923842.66,88.83%,000690
2017-09-30,258174582.95,215598217.3,83.51%,23462614.2,9.09%,,--,182059462.15,70.52%,100000,0.04%,42576365.65,16.49%,1529119,0.59%,10370763.6,4.02%,,--,,--,168630556.6,90189434.51,53.48%,78441122.09,46.52%,000691
2017-09-30,5050536676.99,1797224607.03,35.58%,274328426.69,5.43%,536517960.62,10.62%,451071629.37,8.93%,252170481.74,4.99%,3253312069.96,64.42%,2180842663.69,43.18%,217017334.92,4.30%,7074444.52,0.14%,,--,3747986684.81,2654860830,70.83%,1093125854.81,29.17%,000692
2017-09-30,3790297237.87,3099855690.64,81.78%,1472407.17,0.04%,231770024.23,6.11%,128559913.91,3.39%,875727984.24,23.10%,690441547.23,18.22%,322591940.26,8.51%,114356325.44,3.02%,19339229.71,0.51%,,--,3053850240.23,2382508754.23,78.02%,671341486,21.98%,000693
2017-09-30,1486875200.15,647887782.45,43.57%,185666073.61,12.49%,244368784.71,16.44%,144642303.45,9.73%,2770000,0.19%,838987417.7,56.43%,740306621.52,49.79%,38777979.73,2.61%,10726077.69,0.72%,,--,1022916934.44,845593345.7,82.66%,177323588.74,17.34%,000695
2017-09-30,5000475792.12,1335817674.02,26.71%,683560228.76,13.67%,330177423.01,6.60%,178901892.53,3.58%,58313440.85,1.17%,3664658118.1,73.29%,1069190189.32,21.38%,165818285.94,3.32%,23465483.16,0.47%,,--,3686217253.16,3508475142.22,95.18%,177742110.94,4.82%,000697
2017-09-30,9607773905.03,3264891244.37,33.98%,1288949991.6,13.42%,47565782.74,0.50%,363687238.14,3.79%,172212446.92,1.79%,6342882660.66,66.02%,5069031618.11,52.76%,769656455.96,8.01%,52899793.98,0.55%,,--,5260388889.28,4202315081.85,79.89%,1058073807.43,20.11%,000698
2017-09-30,6794270135.29,2508267877.7,36.92%,975785145.33,14.36%,510438767.79,7.51%,441115840.27,6.49%,208531645.34,3.07%,4286002257.59,63.08%,1363471841.09,20.07%,129867747.5,1.91%,215921.89,0.00%,,--,3684415725.66,2564822743.91,69.61%,1119592981.75,30.39%,000700
2017-09-30,19698467812.71,15791777047.4,80.17%,2614924005.55,13.27%,4768181263.15,24.21%,3941368837.2,20.01%,2298053715.32,11.67%,3906690765.31,19.83%,1624480734.26,8.25%,264993640.58,1.35%,73504007.52,0.37%,,--,14164997429.61,13322451022.33,94.05%,842546407.28,5.95%,000701
2017-09-30,678621406.11,277841920.13,40.94%,72481800.29,10.68%,3584502.06,0.53%,161350408.93,23.78%,34636228.69,5.10%,400779485.98,59.06%,251658354.16,37.08%,29439449.89,4.34%,,--,,--,202967883,186489224.09,91.88%,16478658.91,8.12%,000702
2017-09-30,31438689936.56,11278554750.73,35.87%,4424164379.32,14.07%,1232721593.04,3.92%,2183669859.39,6.95%,1831193887.58,5.82%,20160135185.83,64.13%,7828512557.14,24.90%,254716582.61,0.81%,8973523.15,0.03%,,--,15369502499.9,14776320351.03,96.14%,593182148.87,3.86%,000703
2017-09-30,2083436101.6,1170823904.7,56.20%,229735326.48,11.03%,448816389.47,21.54%,360704490.21,17.31%,44306706.17,2.13%,912612196.9,43.80%,554013583.24,26.59%,79929775.7,3.84%,7902981.39,0.38%,,--,713833299.47,688618207.41,96.47%,25215092.06,3.53%,000705
2017-09-30,11169389383.78,6513175722.53,58.31%,1754694785.45,15.71%,386323204.65,3.46%,3736580621.28,33.45%,294691938.9,2.64%,4656213661.25,41.69%,3043968546.66,27.25%,381981134.89,3.42%,,--,,--,10229640201.05,8681297164.16,84.86%,1548343036.89,15.14%,000707
2017-12-31,6578740103.44,3947462656.49,60.00%,1178405173.02,17.91%,346770408.89,5.27%,1026505127.56,15.60%,29007327.53,0.44%,2631277446.95,40.00%,2453797583.17,37.30%,19352480.1,0.29%,,--,,--,2550438686.38,2475033042.42,97.04%,75405643.96,2.96%,000708
2017-09-30,187784369086.76,54776184461.75,29.17%,17222227547.65,9.17%,2323556014.17,1.24%,26244913370.62,13.98%,1912863190.04,1.02%,133008184625.01,70.83%,101270934026.35,53.93%,377920055.94,0.20%,73627321.98,0.04%,,--,139881877150.16,111125428791.26,79.44%,28756448358.9,20.56%,000709
2017-09-30,1637933052.92,1048978701.45,64.04%,419991004.34,25.64%,426776881.45,26.06%,113134570.78,6.91%,42935890.15,2.62%,588954351.47,35.96%,448328251.07,27.37%,9213098.96,0.56%,27822994.2,1.70%,,--,149274377.7,138922483.58,93.07%,10351894.12,6.93%,000710
2017-09-30,7887944906.77,5409451455.56,68.58%,982840844.13,12.46%,802727730.61,10.18%,2682551584.84,34.01%,470518913.07,5.97%,2478493451.21,31.42%,191025988.16,2.42%,102877717.54,1.30%,1500014.92,0.02%,,--,3692540450.89,3200748191.25,86.68%,491792259.64,13.32%,000711
2017-09-30,32657109806,27500050185.48,84.21%,4737958931.6,14.51%,,--,668.44,0.00%,,--,5157059620.52,15.79%,69994359.42,0.21%,452240817.16,1.38%,65732390.04,0.20%,,--,27054083455.81,22187814243.38,82.01%,4866269212.43,17.99%,000712
2017-09-30,2422201912.03,1441963153.69,59.53%,94436051.79,3.90%,114875082.72,4.74%,761503135.54,31.44%,287796074.25,11.88%,980238758.34,40.47%,411726803,17.00%,171348302.27,7.07%,5495641.03,0.23%,,--,1047836483.91,1015185522.25,96.88%,32650961.66,3.12%,000713
2017-09-30,2186966577.55,975835391.5,44.62%,892746186.2,40.82%,1679346.65,0.08%,40229552.45,1.84%,10163462.19,0.46%,1211131186.05,55.38%,790522168.35,36.15%,224551129.36,10.27%,,--,,--,938962541.37,699008973,74.44%,239953568.37,25.56%,000715
2017-09-30,3697885797.52,1740910643.31,47.08%,326469988.71,8.83%,204114225.98,5.52%,280449543.92,7.58%,340738121.08,9.21%,1956975154.21,52.92%,706249656.51,19.10%,464210859.54,12.55%,28813710.34,0.78%,,--,1522436202.78,992355979.24,65.18%,530080223.54,34.82%,000716
2017-12-31,14415379972.51,4405144539.95,30.56%,1088552601.43,7.55%,505789562.68,3.51%,2021016094.31,14.02%,154958906.72,1.07%,10010235432.56,69.44%,8015479000.68,55.60%,194687296.42,1.35%,,--,,--,11442818086.08,11169222407.29,97.61%,273595678.79,2.39%,000717
2017-09-30,19999575129.69,18130416763.41,90.65%,2424389155.72,12.12%,538156453.02,2.69%,12707584152.91,63.54%,781107747.38,3.91%,1869158366.28,9.35%,134280679.11,0.67%,24765817.43,0.12%,7196709.3,0.04%,,--,11525113529.59,9935197775.64,86.20%,1589915753.95,13.80%,000718
2017-09-30,10958809921.49,6858962882.24,62.59%,2580469374.91,23.55%,1433165856.26,13.08%,1321030957.85,12.05%,430314491.14,3.93%,4099847039.25,37.41%,1155838061.96,10.55%,994652179.72,9.08%,38013748.49,0.35%,,--,3987727521.58,3341185156.12,83.79%,646542365.46,16.21%,000719
2017-09-30,8589031380.93,4214314696.39,49.07%,288279469.82,3.36%,599525723.57,6.98%,3184906002.85,37.08%,37994457.01,0.44%,4374716684.54,50.93%,3372059652.1,39.26%,176246982.51,2.05%,2772580.34,0.03%,,--,7295077975.31,4153572684.97,56.94%,3141505290.34,43.06%,000720
2017-09-30,1133714133.05,499033106.86,44.02%,350951104.88,30.96%,23315721.73,2.06%,31877983.35,2.81%,17781527.5,1.57%,634681026.19,55.98%,316583786.64,27.92%,22117485.41,1.95%,44457734.39,3.92%,,--,456272925.74,359672581.8,78.83%,96600343.94,21.17%,000721
2017-09-30,3139682839.6,958622227.28,30.53%,567676157.96,18.08%,17765609.33,0.57%,64403861.12,2.05%,8332466.58,0.27%,2181060612.32,69.47%,1615044597.5,51.44%,13838016.96,0.44%,11511298.58,0.37%,,--,209843107.57,70530938.08,33.61%,139312169.49,66.39%,000722
2017-09-30,13291107201.06,4926868673.11,37.07%,805767340.08,6.06%,1285729284.69,9.67%,1463498587.2,11.01%,984220893.78,7.41%,8364238527.95,62.93%,6471147079.8,48.69%,518569267.08,3.90%,,--,,--,5130437938.23,4260825389.81,83.05%,869612548.42,16.95%,000723
2017-09-30,238955632292,96013182948,40.18%,53519407759,22.40%,15052229887,6.30%,9363701031,3.92%,827453107,0.35%,142942449344,59.82%,80589869844,33.73%,3285107422,1.37%,300117127,0.13%,,--,134171877219,47385500248,35.32%,86786376971,64.68%,000725
2017-09-30,9519311781.79,3221736247.05,33.84%,664007740.98,6.98%,304887703.37,3.20%,1890682210.49,19.86%,152861983.08,1.61%,6297575534.74,66.16%,5093113348.63,53.50%,478132427.97,5.02%,109049747.27,1.15%,,--,1986614322.91,1768679282.68,89.03%,217935040.23,10.97%,000726
2017-09-30,34068861321.5,5729434372.97,16.82%,1332008714.57,3.91%,854286119.9,2.51%,2284625999.09,6.71%,18957022.42,0.06%,28339426948.53,83.18%,25117217899.73,73.72%,1020095856.17,2.99%,47591677.49,0.14%,,--,16145899023.59,5797536153.75,35.91%,10348362869.84,64.09%,000727
2017-09-30,76604396426.32,,--,16106284066.82,21.03%,832603846.51,1.09%,,--,,--,,--,1392370514.34,1.82%,41791212.41,0.05%,,--,,--,55571370519.07,,--,,--,000728
2017-09-30,18728290826.41,6702202565.05,35.79%,2212424842.2,11.81%,154391181.44,0.82%,3714108936.8,19.83%,147524137.08,0.79%,12026088261.36,64.21%,9795248258.26,52.30%,979843437.32,5.23%,,--,,--,4552515294.07,4533296267.97,99.58%,19219026.1,0.42%,000729
2017-09-30,4412506339.54,1332521349.3,30.20%,714358552.34,16.19%,44048150.6,1.00%,235273717.41,5.33%,68003612.85,1.54%,3079984990.24,69.80%,2655833395.59,60.19%,306585493.95,6.95%,,--,,--,1728382389.33,1256287755.35,72.69%,472094633.98,27.31%,000731
2017-09-30,183586893588.46,159286282364.87,86.76%,15667518750.28,8.53%,855576820.14,0.47%,115398643822.23,62.86%,4279868605.06,2.33%,24300611223.59,13.24%,2092865615.22,1.14%,150642643.7,0.08%,10674116.13,0.01%,,--,156928400509.6,68821155544.62,43.86%,88107244964.98,56.14%,000732
2017-09-30,9217860807.34,6581248698.85,71.40%,783093863.39,8.50%,2699739968.14,29.29%,1710034010.85,18.55%,165648659.75,1.80%,2636612108.49,28.60%,1311788101.5,14.23%,207878957.45,2.26%,63400824.82,0.69%,,--,4991936292.26,3402270692.83,68.16%,1589665599.43,31.84%,000733
2017-09-30,6189400232.69,2079913786.99,33.60%,789694188.81,12.76%,32027300.64,0.52%,790196715.97,12.77%,6652111.72,0.11%,4109486445.7,66.40%,1802418749.84,29.12%,337539114.46,5.45%,11817856.28,0.19%,,--,2495718165.67,1308622652.3,52.43%,1187095513.37,47.57%,000735
2017-09-30,27669259542.91,25455110173.14,92.00%,3373616902.36,12.19%,150273.53,0.00%,20747461134.6,74.98%,507293270.11,1.83%,2214149369.77,8.00%,52288948.49,0.19%,3015928.17,0.01%,51168318.05,0.18%,,--,25193401149.82,15270139859.93,60.61%,9923261289.89,39.39%,000736
2017-12-31,2616451026.32,1262752887.37,48.26%,338769683.5,12.95%,342216253.92,13.08%,426584698.57,16.30%,36379610.2,1.39%,1353698138.95,51.74%,897563562.3,34.30%,311060756.08,11.89%,20578707.58,0.79%,,--,2906968887.42,2485180498.52,85.49%,421788388.9,14.51%,000737
2017-09-30,6985015863.07,4239599629.49,60.70%,1106946087.8,15.85%,1694698025.85,24.26%,821381724.42,11.76%,60838611.61,0.87%,2745416233.58,39.30%,1863749950.98,26.68%,421508786.08,6.03%,424402.79,0.01%,,--,1599788303.68,1559093846.02,97.46%,40694457.66,2.54%,000738
2017-12-31,5691123928.46,2870230647.3,50.43%,546982547.75,9.61%,1093732322.67,19.22%,727156003.6,12.78%,101621381.27,1.79%,2820893281.16,49.57%,2120535539.42,37.26%,376663245.72,6.62%,4855997.47,0.09%,,--,2641129319.96,2437475857.79,92.29%,203653462.17,7.71%,000739
2017-09-30,68620829849.32,,--,10811290701.63,15.76%,127721243.72,0.19%,,--,,--,,--,162279800.03,0.24%,90516360.38,0.13%,,--,,--,54168066839.63,,--,,--,000750
2017-09-30,4201943855.33,2335812088.27,55.59%,250360254.08,5.96%,88223943.29,2.10%,1458840870.76,34.72%,359302472.58,8.55%,1866131767.06,44.41%,790309153.05,18.81%,807629585.42,19.22%,,--,,--,1937004415.79,1627532661.5,84.02%,309471754.29,15.98%,000751
2017-09-30,1458832188.3,728808700.1,49.96%,700476318.28,48.02%,,--,20283751.01,1.39%,7340916.32,0.50%,730023488.2,50.04%,142848113.63,9.79%,5440139.12,0.37%,,--,,--,163110244.72,157796203.31,96.74%,5314041.41,3.26%,000752
2017-09-30,5167094512.49,3838694452.32,74.29%,1124534926.89,21.76%,63467689.87,1.23%,2307272608.87,44.65%,67578583.63,1.31%,1328400060.17,25.71%,356623675.11,6.90%,420818632.46,8.14%,162797035.51,3.15%,,--,2916823894.79,2123289058.29,72.79%,793534836.5,27.21%,000753
2017-09-30,4873113130.13,1197788870.42,24.58%,570821399.94,11.71%,76844714.14,1.58%,401784274.08,8.24%,98967055.33,2.03%,3675324259.71,75.42%,3333531325.4,68.41%,137195565.46,2.82%,,--,,--,4694047893.54,4493802601.49,95.73%,200245292.05,4.27%,000755
2017-09-30,5168691022.39,1960374487.14,37.93%,794835336.46,15.38%,474427867.54,9.18%,468261519.77,9.06%,27427949.08,0.53%,3208316535.25,62.07%,2105856882.46,40.74%,336432156.56,6.51%,,--,,--,2866742003.33,1621203386.17,56.55%,1245538617.16,43.45%,000756
2017-09-30,1052197524.93,491636428.82,46.72%,116876303.22,11.11%,106132869.75,10.09%,124728059.96,11.85%,183948.64,0.02%,560561096.11,53.28%,269837190.81,25.65%,6397974.39,0.61%,6461433.41,0.61%,,--,451277269.92,247313051.78,54.80%,203964218.14,45.20%,000757
2017-09-30,24169379953.49,17191632680.89,71.13%,3421693944.91,14.16%,5053787329.64,20.91%,4530299963.51,18.74%,2694235032.72,11.15%,6977747272.6,28.87%,3574057816.31,14.79%,1139002312.87,4.71%,114694722.27,0.47%,,--,17162303231.21,14464438941.06,84.28%,2697864290.15,15.72%,000758
2017-09-30,7860869730.99,3071709934.18,39.08%,901827135.88,11.47%,112212628.44,1.43%,1166576008.13,14.84%,299469530.47,3.81%,4789159796.81,60.92%,3628066300.52,46.15%,427817557.85,5.44%,354465453.58,4.51%,,--,4552390538.19,4542865089.48,99.79%,9525448.71,0.21%,000759
2017-09-30,2736770782.92,1091883148.16,39.90%,555501064.69,20.30%,62471451.35,2.28%,197307145.71,7.21%,23718879.1,0.87%,1644887634.76,60.10%,269096519.05,9.83%,192028185.94,7.02%,793331.79,0.03%,,--,657035448.51,595915060.91,90.70%,61120387.6,9.30%,000760
2017-09-30,56692375310.29,29324663961.18,51.73%,12382277330.45,21.84%,593371229.51,1.05%,10737088464.68,18.94%,597926580.84,1.05%,27367711349.11,48.27%,19220677904.84,33.90%,255376344.53,0.45%,,--,,--,42098930906.36,38084705217.71,90.46%,4014225688.65,9.54%,000761
2017-09-30,3174968099.21,2020056751.81,63.62%,1490200145.12,46.94%,107456056.41,3.38%,108195943.09,3.41%,53176151.02,1.67%,1154911347.4,36.38%,378935515.66,11.94%,362346544.18,11.41%,156454683.26,4.93%,,--,623660221.34,571007382.41,91.56%,52652838.93,8.44%,000762
2017-09-30,5547679271.67,1566872338.89,28.24%,244168868.68,4.40%,367876460.87,6.63%,466346654.43,8.41%,58535579.76,1.06%,3980806932.78,71.76%,795272884.35,14.34%,290774165.01,5.24%,2316910.6,0.04%,,--,1211343867.16,772691895.91,63.79%,438651971.25,36.21%,000766
2017-09-30,50384684814.89,12934484543.91,25.67%,4137912823.05,8.21%,2346972934.65,4.66%,896968087.28,1.78%,1136028626.55,2.25%,37450200270.98,74.33%,25200154857.43,50.02%,1181824416.93,2.35%,56427246.37,0.11%,,--,40931327042.4,20070485726.31,49.03%,20860841316.09,50.97%,000767
2017-12-31,40738764248.43,32804959086.9,80.53%,6331965293.91,15.54%,8921626412.89,21.90%,13134965504.77,32.24%,2598019509.59,6.38%,7933805161.53,19.47%,4776531405.55,11.72%,392250417.8,0.96%,709258.11,0.00%,,--,23090346862.56,22457163733.98,97.26%,633183128.58,2.74%,000768
2017-09-30,362411416940.21,,--,62710002576.67,17.30%,2703699601.17,0.75%,,--,,--,,--,840833848.13,0.23%,538485704.31,0.15%,,--,,--,275097884238.57,,--,,--,000776
2017-09-30,1954858084.84,1273849536.85,65.16%,142372850.52,7.28%,643057051.1,32.90%,350580882.49,17.93%,93511393,4.78%,681008547.99,34.84%,277589187.3,14.20%,52510397.58,2.69%,,--,,--,702125227.91,594772567.22,84.71%,107352660.69,15.29%,000777
2017-09-30,50428998796.82,25095533884.99,49.76%,5745393245.86,11.39%,1876933637.47,3.72%,3484413506.88,6.91%,2268065117.1,4.50%,25333464911.83,50.24%,15627635690.02,30.99%,794129910.04,1.57%,1249999.95,0.00%,,--,29692884092.8,23090129177.38,77.76%,6602754915.42,22.24%,000778
2017-12-31,635062021.48,194633244.78,30.65%,17687510.74,2.79%,49395202.52,7.78%,107502581.18,16.93%,303068.16,0.05%,440428776.7,69.35%,390138738.14,61.43%,34713651.16,5.47%,99999.64,0.02%,,--,336977473.04,228669339.45,67.86%,108308133.59,32.14%,000779
2017-09-30,5855918104.41,4145747640.29,70.80%,3200752085.04,54.66%,763877507.46,13.04%,57348072.52,0.98%,12227124.13,0.21%,1710170464.12,29.20%,753790411.67,12.87%,842340225.88,14.38%,68866350.05,1.18%,,--,1483269196.15,1420038320.22,95.74%,63230875.93,4.26%,000780
2017-12-31,2634498460.85,1551181457.23,58.88%,283312605.57,10.75%,143296563.26,5.44%,305148149.9,11.58%,135173720.29,5.13%,1083317003.62,41.12%,899026464.64,34.13%,41820931.5,1.59%,,--,,--,1396929780,1176618780,84.23%,220311000,15.77%,000782
2017-09-30,111248319223.63,,--,23533337536.29,21.15%,572857590.66,0.51%,,--,,--,,--,310912810.43,0.28%,116015107.49,0.10%,,--,19458138838.33,17.49%,84444171979.1,,--,,--,000783
2017-09-30,2751221490.93,1212000410.13,44.05%,470470594.07,17.10%,68369107.54,2.49%,226538661.48,8.23%,36989628.19,1.34%,1539221080.8,55.95%,660627529.72,24.01%,42835462.27,1.56%,71680702.66,2.61%,,--,1794219026.31,1557369026.31,86.80%,236850000,13.20%,000785
2017-09-30,16407117261.45,6207550964.48,37.83%,1577521604.45,9.61%,287963402.27,1.76%,1382402769.55,8.43%,634485037.59,3.87%,10199566296.97,62.17%,7381178483.62,44.99%,1582250869.51,9.64%,16131242.86,0.10%,,--,4681012414.21,3857904194.89,82.42%,823108219.32,17.58%,000786
2017-09-30,2133480858.63,1898736896.7,89.00%,384227009.13,18.01%,961675707.93,45.08%,341194405.56,15.99%,63176423.69,2.96%,234743961.93,11.00%,158952695.73,7.45%,1447693.86,0.07%,12909952.24,0.61%,,--,963258778.53,962471886.98,99.92%,786891.55,0.08%,000788
2017-09-30,8451728969.45,2935801151.82,34.74%,1142909799.49,13.52%,662730487.24,7.84%,502916358.17,5.95%,222303742.75,2.63%,5515927817.63,65.26%,4056767146.15,48.00%,647580057.72,7.66%,5102047.94,0.06%,,--,4187734579.58,3048941921.59,72.81%,1138792657.99,27.19%,000789
2017-12-31,1326057825.47,1029121340.52,77.61%,443400371.44,33.44%,309817105.35,23.36%,65551399.7,4.94%,5789766.46,0.44%,296936484.95,22.39%,239252598.96,18.04%,19418424.76,1.46%,794017.8,0.06%,,--,487194375.56,473243334.03,97.14%,13951041.53,2.86%,000790
2017-09-30,19116358144.53,1712397586.93,8.96%,523610307.27,2.74%,651771296.12,3.41%,5511134.21,0.03%,5460172.67,0.03%,17403960557.6,91.04%,15200900701.64,79.52%,135416115.68,0.71%,,--,,--,13440615801.51,1425830179.94,10.61%,12014785621.57,89.39%,000791
2017-09-30,83581521718,14558282474.89,17.42%,4958484801.98,5.93%,506664743.22,0.61%,3093300330.03,3.70%,519648743.94,0.62%,69023239243.11,82.58%,34964846720.99,41.83%,779608151.51,0.93%,4639223.91,0.01%,,--,57764820443.35,22996601969.14,39.81%,34768218474.21,60.19%,000792
2017-09-30,15174999050.28,4336742473.73,28.58%,1597036917.72,10.52%,1172353236.41,7.73%,210546438.89,1.39%,413763004.35,2.73%,10838256576.55,71.42%,642043186.19,4.23%,232768764.63,1.53%,18104097.81,0.12%,,--,4950048537.96,1539078987.93,31.09%,3410969550.03,68.91%,000793
2017-12-31,2625120776.26,1795904558.69,68.41%,668300915.25,25.46%,465055360.08,17.72%,364196065.51,13.87%,29367299.26,1.12%,829216217.57,31.59%,606357736.52,23.10%,131738361.47,5.02%,1064530.57,0.04%,,--,523977354.36,464209949.41,88.59%,59767404.95,11.41%,000795
2017-09-30,5619512471.48,3959123587.33,70.45%,1991728948.51,35.44%,998962525.51,17.78%,15652019.37,0.28%,640724462.37,11.40%,1660388884.15,29.55%,231801968.41,4.12%,108051007.94,1.92%,9655679.23,0.17%,,--,3269903781.58,2554347763.32,78.12%,715556018.26,21.88%,000796
2017-09-30,12797913931.33,11905255276.34,93.02%,3269296704.71,25.55%,811814436.5,6.34%,7229671179.08,56.49%,200819594.84,1.57%,892658654.99,6.98%,356773692.82,2.79%,69229754.13,0.54%,30283214.17,0.24%,,--,10410710797.72,5867479790.76,56.36%,4543231006.96,43.64%,000797
2017-09-30,1306406325.1,740601845.02,56.69%,335341041.39,25.67%,43225203.23,3.31%,176012436.27,13.47%,17309971.82,1.33%,565804480.08,43.31%,377553186.63,28.90%,12034746.13,0.92%,,--,,--,567729738.09,531102591.94,93.55%,36627146.15,6.45%,000798
2017-12-31,2541736623.88,1851873350.35,72.86%,341792637.72,13.45%,6254408.5,0.25%,778330272.71,30.62%,4414087.41,0.17%,689863273.53,27.14%,404659308.96,15.92%,92184773.47,3.63%,,--,,--,536059149.39,530087028.22,98.89%,5972121.17,1.11%,000799
2017-09-30,17451442756.87,9283192849.92,53.19%,1013304026.69,5.81%,524594135.43,3.01%,2465139263.9,14.13%,218919866.64,1.25%,8168249906.95,46.81%,4366721149.62,25.02%,679610445.78,3.89%,56336060.5,0.32%,,--,9310577806.44,8733195592.16,93.80%,577382214.28,6.20%,000800
2017-09-30,5086605164.76,4446856538.77,87.42%,721749211.14,14.19%,2190057478.48,43.06%,828210302.71,16.28%,119370295.22,2.35%,639748625.99,12.58%,384880846.76,7.57%,41793857.24,0.82%,4214754.36,0.08%,,--,2737191187.19,2574762009.23,94.07%,162429177.96,5.93%,000801
2017-12-31,5639645106.68,3628502662.86,64.34%,1205304883.75,21.37%,726387556.27,12.88%,630711355.06,11.18%,841833639.32,14.93%,2011142443.82,35.66%,39485044.6,0.70%,41827811.02,0.74%,81206157.09,1.44%,,--,831066402.59,713588691.11,85.86%,117477711.48,14.14%,000802
2017-12-31,1304702844.32,558625161.14,42.82%,64283288.79,4.93%,215906080.47,16.55%,168661115.52,12.93%,13591448.27,1.04%,746077683.18,57.18%,67274444.91,5.16%,70731826.34,5.42%,3118986.86,0.24%,,--,1149367470.84,1038376565.4,90.34%,110990905.44,9.66%,000803
2017-09-30,3172829478.16,1871203936.9,58.98%,291878969,9.20%,676334770.99,21.32%,521576399.77,16.44%,110656015.61,3.49%,1301625541.26,41.02%,360548036.22,11.36%,162613126.33,5.13%,12570348.59,0.40%,,--,1021319499.48,881951198.15,86.35%,139368301.33,13.65%,000806
2017-09-30,34548077322.27,9830305308.02,28.45%,4270916995.12,12.36%,697960832.02,2.02%,3771952370.44,10.92%,239754216.9,0.69%,24717772014.25,71.55%,17902750224.69,51.82%,1284594438.74,3.72%,309048906.42,0.89%,,--,23930103663.02,17217643054.25,71.95%,6712460608.77,28.05%,000807
2017-09-30,6017023840.54,5589434798.23,92.89%,85784221.29,1.43%,152656950.9,2.54%,5325884751.77,88.51%,1854777.66,0.03%,427589042.31,7.11%,248076105.12,4.12%,35624733.32,0.59%,85918.25,0.00%,,--,2976673159.96,909674674.29,30.56%,2066998485.67,69.44%,000809
2017-09-30,7211205511.1,6041359601.33,83.78%,993256236.81,13.77%,2853830241.43,39.57%,1272914467.24,17.65%,48315381.93,0.67%,1169845909.77,16.22%,690995694.42,9.58%,164106099.14,2.28%,99011907.87,1.37%,,--,4518936151.22,4133882318.81,91.48%,385053832.41,8.52%,000810
2017-09-30,5701031204.53,3041218749.17,53.35%,845861315.29,14.84%,1031370852.84,18.09%,648881774.66,11.38%,99968068.09,1.75%,2659812455.36,46.65%,686256725.87,12.04%,220450168.67,3.87%,6499214.01,0.11%,,--,2881715145.98,2044286097.09,70.94%,837429048.89,29.06%,000811
2017-09-30,1837756399.27,947227293.65,51.54%,514763281.18,28.01%,86671667.23,4.72%,298239075.59,16.23%,3839769.33,0.21%,890529105.62,48.46%,622827286.34,33.89%,133769173.49,7.28%,1895574.9,0.10%,,--,749705368.13,708005266.78,94.44%,41700101.35,5.56%,000812
2017-09-30,4577691822.01,3922995950.83,85.70%,2047130563.89,44.72%,1092034359.64,23.86%,225749865.99,4.93%,46360521.68,1.01%,654695871.18,14.30%,305163239.19,6.67%,63735001.37,1.39%,1763526.75,0.04%,,--,193034891.42,173457712.31,89.86%,19577179.11,10.14%,000813
2017-09-30,2943490676.35,1684857471.77,57.24%,214653363.65,7.29%,56459562.98,1.92%,600771926.91,20.41%,123884091.34,4.21%,1258633204.58,42.76%,746484907.19,25.36%,23471666.65,0.80%,168340313.67,5.72%,,--,944167091.07,668101198.17,70.76%,276065892.9,29.24%,000815
2017-09-30,6739870413.94,3300079259.83,48.96%,1960923744.08,29.09%,492465775.66,7.31%,,--,45015770.93,0.67%,3439791154.11,51.04%,1222057667.75,18.13%,1579297497.89,23.43%,5507860.97,0.08%,,--,3120601913.74,2965058553.35,95.02%,155543360.39,4.98%,000816
2017-12-31,3802242124.88,845034756.7,22.22%,124845082.21,3.28%,227971749.6,6.00%,192962407.73,5.07%,22612665.65,0.59%,2957207368.18,77.78%,1383784023.35,36.39%,544364365.71,14.32%,35543320.32,0.93%,,--,1196752513.95,1164250611.54,97.28%,32501902.41,2.72%,000818
2017-09-30,851557214.8,604721617.84,71.01%,528006456.56,62.00%,7045817.61,0.83%,44614764.31,5.24%,8868967.66,1.04%,246835596.96,28.99%,174629915.15,20.51%,28836454.34,3.39%,3104437.49,0.36%,,--,146954250.15,138954250.15,94.56%,8000000,5.44%,000819
2017-09-30,2049898428.63,1986755335.51,96.92%,547545485,26.71%,725659622.59,35.40%,32472185.8,1.58%,603006542.72,29.42%,63143093.12,3.08%,9316066.52,0.45%,34125985.72,1.66%,8851759.33,0.43%,,--,1012880733.02,782301288.57,77.24%,230579444.45,22.76%,000820
2017-09-30,3049177111.88,1712089121.41,56.15%,537759267.97,17.64%,569670734.16,18.68%,361919541.74,11.87%,130792141.48,4.29%,1337087990.47,43.85%,354677677.2,11.63%,74267069.26,2.44%,846574.79,0.03%,,--,1163934897.08,979018009.83,84.11%,184916887.25,15.89%,000821
2017-12-31,4308536891.27,2133466663.11,49.52%,212510712.1,4.93%,96247176.47,2.23%,443180484.02,10.29%,53794779.2,1.25%,2175070228.16,50.48%,1746506095.97,40.54%,84787336.27,1.97%,,--,,--,1507241044.77,1169973235.06,77.62%,337267809.71,22.38%,000822
2017-09-30,4971408942.45,2981633043.68,59.98%,880312225.81,17.71%,1202710841.49,24.19%,664557278.63,13.37%,16861170.69,0.34%,1989775898.77,40.02%,1610456148.89,32.39%,55195033.33,1.11%,15922706.01,0.32%,,--,1516930828.55,1475705779.47,97.28%,41225049.08,2.72%,000823
2017-09-30,70145489413.36,16639067642.74,23.72%,6543765364.04,9.33%,1700411861.85,2.42%,4370782269.71,6.23%,114382068.61,0.16%,53506421770.62,76.28%,50693048009.53,72.27%,253941551.06,0.36%,2699421.61,0.00%,,--,45057543189.62,35432624037.65,78.64%,9624919151.97,21.36%,000825
2017-09-30,32041771600.75,12330583186.55,38.48%,6581175772.03,20.54%,3815255493.08,11.91%,558147246.61,1.74%,525343605.88,1.64%,19711188414.2,61.52%,1959231836.64,6.11%,2510223028.69,7.83%,120115779.93,0.37%,,--,17450691068.93,11775946373.49,67.48%,5674744695.44,32.52%,000826
2017-09-30,9775265223.36,1829306110.14,18.71%,1040759017.92,10.65%,16927297.83,0.17%,,--,138528851.44,1.42%,7945959113.22,81.29%,1755560514.35,17.96%,313878353.4,3.21%,168455122.85,1.72%,,--,4258595025.55,2472760643,58.07%,1785834382.55,41.93%,000828
2017-09-30,14068361011.66,10212577486.28,72.59%,3594504732.81,25.55%,742559619.34,5.28%,3512876780.21,24.97%,1819642787.55,12.93%,3855783525.38,27.41%,297931621.59,2.12%,1452848549.92,10.33%,20741219.24,0.15%,,--,11370006559.75,10636781584.66,93.55%,733224975.09,6.45%,000829
2017-09-30,26349973949.75,3369507185.65,12.79%,684621956.92,2.60%,73716755.44,0.28%,1484264185.41,5.63%,425909800.6,1.62%,22980466764.1,87.21%,14809979334.27,56.20%,1109093783.78,4.21%,,--,,--,16685052426.06,12666400246.1,75.91%,4018652179.96,24.09%,000830
2017-09-30,2213367613.08,1704397910.83,77.00%,226422485.69,10.23%,403420481.7,18.23%,673017262.67,30.41%,51672675.62,2.33%,508969702.25,23.00%,121797758.86,5.50%,14240582.51,0.64%,,--,,--,107697149.08,103878966.07,96.45%,3818183.01,3.55%,000831
2017-12-31,3380565116.33,1452409512.52,42.96%,822696180.76,24.34%,42904428.76,1.27%,271972313.72,8.05%,23931335.11,0.71%,1928155603.81,57.04%,720345122.83,21.31%,1034261317.56,30.59%,15614490.1,0.46%,,--,652655402.43,456057485.99,69.88%,196597916.44,30.12%,000833
2017-09-30,1401309821.52,332576278.98,23.73%,89431189.23,6.38%,62660256.83,4.47%,24537934.69,1.75%,30778101.2,2.20%,1068733542.54,76.27%,135530868.13,9.67%,280278675.79,20.00%,37549862.38,2.68%,,--,1011788541.14,645660214.57,63.81%,366128326.57,36.19%,000835
2017-09-30,2733693444.72,1716737669.12,62.80%,393423079.6,14.39%,252651305.28,9.24%,276950083.3,10.13%,44068581.07,1.61%,1016955775.6,37.20%,416732384.77,15.24%,89391534.37,3.27%,17720071.7,0.65%,,--,711995439.41,692514760.96,97.26%,19480678.45,2.74%,000836
2017-09-30,8111947676.8,4896026726.62,60.36%,1176683665.75,14.51%,777243195.1,9.58%,1787375052.42,22.03%,182819744.02,2.25%,3215920950.18,39.64%,1926937726.73,23.75%,317456992.6,3.91%,27277969.26,0.34%,,--,4579793261.47,3272350531.36,71.45%,1307442730.11,28.55%,000837
2017-12-31,8615770505.79,8094407876.83,93.95%,620715906.05,7.20%,101966541.85,1.18%,6962746312.03,80.81%,23282186.67,0.27%,521362628.96,6.05%,164178680.88,1.91%,23811777.03,0.28%,2280224.63,0.03%,,--,6735800789.71,5188925439.15,77.04%,1546875350.56,22.96%,000838
2017-09-30,16392153448.41,5376996224.2,32.80%,2194423638.63,13.39%,975547837.92,5.95%,1561012869.62,9.52%,243563265.34,1.49%,11015157224.21,67.20%,273581045.39,1.67%,106724281.72,0.65%,99210883.16,0.61%,,--,8856768638.32,6010440749.16,67.86%,2846327889.16,32.14%,000839
2017-09-30,2442166618.33,1832622784.59,75.04%,1663852698.17,68.13%,77043.88,0.00%,139760715.59,5.72%,25365264.09,1.04%,609543833.74,24.96%,254484656.58,10.42%,319578237.54,13.09%,846928.82,0.03%,,--,505556792.63,458772438.38,90.75%,46784354.25,9.25%,000848
2017-09-30,8227816830.88,1490373863.83,18.11%,303040353.07,3.68%,211984100.53,2.58%,662381015.07,8.05%,153522017.29,1.87%,6737442967.05,81.89%,1759949484.07,21.39%,463302347.58,5.63%,,--,,--,3249697191.93,1951927459.7,60.06%,1297769732.23,39.94%,000850
2017-09-30,8098374629.55,5310444227.43,65.57%,854908812.15,10.56%,1448898827.54,17.89%,708604437.96,8.75%,1561609031.8,19.28%,2787930402.12,34.43%,102156338.63,1.26%,457442779.83,5.65%,7434701.68,0.09%,,--,4822407802,4129290268.28,85.63%,693117533.72,14.37%,000851
2017-09-30,6639619256.64,5183539362.8,78.07%,256508623.39,3.86%,1822323139.17,27.45%,2537997887.16,38.23%,233212315.26,3.51%,1456079893.84,21.93%,1197824670.85,18.04%,97871163.14,1.47%,20605675.37,0.31%,,--,4873754187.11,4761612063.12,97.70%,112142123.99,2.30%,000852
2017-09-30,1758492365.21,1385886460.54,78.81%,144922835.87,8.24%,699705641.25,39.79%,223645571.24,12.72%,143773525.97,8.18%,372605904.67,21.19%,74614653.97,4.24%,12485114.84,0.71%,1458236.8,0.08%,,--,1405612352,1395412352,99.27%,10200000,0.73%,000856
2017-09-30,66083400883.52,58549549301.13,88.60%,37009464495.18,56.00%,117313272.51,0.18%,9913263627.94,15.00%,285151661.41,0.43%,7533851582.39,11.40%,5277803007.66,7.99%,401014121.88,0.61%,118149951.62,0.18%,,--,14230069297.88,13944789298.03,98.00%,285279999.85,2.00%,000858
2017-09-30,2108174877.25,926636504.81,43.95%,234553367.22,11.13%,174755086.04,8.29%,155153605.04,7.36%,68337550.29,3.24%,1181538372.44,56.05%,877296741.01,41.61%,154554510.64,7.33%,2500131.75,0.12%,,--,631136877.17,442168459.42,70.06%,188968417.75,29.94%,000859
2017-09-30,17734442152.27,12995985729.95,73.28%,3688856441.01,20.80%,215468378.82,1.21%,8190363132.06,46.18%,353940453.08,2.00%,4738456422.32,26.72%,3242377569.89,18.28%,777026875.21,4.38%,43771535.51,0.25%,,--,10728442049.05,7520135110.78,70.10%,3208306938.27,29.90%,000860
2017-09-30,11007867649.75,6094546986.52,55.37%,1686579317.21,15.32%,166715826.06,1.51%,3350978827.26,30.44%,139241737.07,1.26%,4913320663.23,44.63%,133479738.06,1.21%,17574672.9,0.16%,383959211.11,3.49%,,--,7615827637.92,3352626316.33,44.02%,4263201321.59,55.98%,000861
2017-09-30,9525402941.16,1956328391.68,20.54%,473099251.99,4.97%,927528073.21,9.74%,143450258.03,1.51%,12484392.2,0.13%,7569074549.48,79.46%,7241301276.5,76.02%,72802603.55,0.76%,9469321.38,0.10%,,--,6661047259.56,1211448618.29,18.19%,5449598641.27,81.81%,000862
2017-09-30,14422891317.22,11584693527.28,80.32%,929987175.31,6.45%,149135979.68,1.03%,10383057307.36,71.99%,8473664.76,0.06%,2838197789.94,19.68%,36750341.48,0.25%,524718475.77,3.64%,1457214.23,0.01%,,--,7975856453.72,2366240460.8,29.67%,5609615992.92,70.33%,000863
2017-09-30,7736674566.17,6070810491.85,78.47%,1217335192.8,15.73%,2010945751.77,25.99%,258930351.49,3.35%,49811451.01,0.64%,1665864074.32,21.53%,1024743302.29,13.25%,246204279.39,3.18%,732675.78,0.01%,,--,6444929469.69,5763648674.97,89.43%,681280794.72,10.57%,000868
2017-09-30,12096803825,4317991617,35.70%,1392937947,11.51%,225773801,1.87%,2125888282,17.57%,2488381,0.02%,7778812208,64.30%,4708631879,38.92%,622588201,5.15%,154900467,1.28%,,--,3165522084,2593981845,81.94%,571540239,18.06%,000869
2017-09-30,32001246400.06,4801305997.85,15.00%,570888992.9,1.78%,1794551527.27,5.61%,119357597.35,0.37%,189882076.53,0.59%,27199940402.21,85.00%,20346412279.75,63.58%,254157167.72,0.79%,11475792.94,0.04%,,--,23339447345.12,10105166255.81,43.30%,13234281089.31,56.70%,000875
2017-09-30,40802544677.09,10019459911.82,24.56%,2356819655.47,5.78%,889979754.74,2.18%,4561058772.64,11.18%,480092761.9,1.18%,30783084765.27,75.44%,7955616050.06,19.50%,1268164027.35,3.11%,148089714.88,0.36%,,--,14667261523.87,11664230386.1,79.53%,3003031137.77,20.47%,000876
2017-09-30,18848659863.84,4219043762.12,22.38%,1601838369.73,8.50%,940203287.57,4.99%,409388490.81,2.17%,263605048.86,1.40%,14629616101.72,77.62%,13012465592.53,69.04%,647139150.62,3.43%,141738121.82,0.75%,,--,11633828143.63,8936880687.73,76.82%,2696947455.9,23.18%,000877
2017-09-30,26227794687.45,12460533414.87,47.51%,3035563861.97,11.57%,504049153.54,1.92%,7258851282.92,27.68%,375647786.23,1.43%,13767261272.58,52.49%,7134581954.26,27.20%,840016764.82,3.20%,438181508.46,1.67%,,--,18353176989.95,15914236139.59,86.71%,2438940850.36,13.29%,000878
2017-09-30,3556344322.23,1441418747.56,40.53%,677102947.04,19.04%,127738124.67,3.59%,484186689.6,13.61%,5601681.12,0.16%,2114925574.67,59.47%,1249828988.35,35.14%,155352149.73,4.37%,,--,,--,2215932454.61,2056699433.44,92.81%,159233021.17,7.19%,000880
2017-09-30,11415414250.66,8116737839.98,71.10%,1179282263.26,10.33%,2008467902.83,17.59%,1207492053.67,10.58%,246370774.27,2.16%,3298676410.68,28.90%,2168221215.43,18.99%,287419590.21,2.52%,15857834.13,0.14%,,--,6031694210.29,5148764274.03,85.36%,882929936.26,14.64%,000881
2017-09-30,13994922066.14,3228860403.5,23.07%,2286737096.83,16.34%,228867447.47,1.64%,6752851.62,0.05%,408123713.47,2.92%,10766061662.64,76.93%,55055549.42,0.39%,901778481.11,6.44%,888186732.03,6.35%,,--,6058982945.53,908222143.23,14.99%,5150760802.3,85.01%,000882
2017-09-30,43628575769.8,3618682928.47,8.29%,1194126903.38,2.74%,1449309591.27,3.32%,264878573.29,0.61%,367863721.64,0.84%,40009892841.33,91.71%,25230489716.55,57.83%,560657129.53,1.29%,5120815.42,0.01%,,--,15352503804.04,9858554129.34,64.21%,5493949674.7,35.79%,000883
2017-09-30,7908737310.1,611722152.97,7.73%,443626188.96,5.61%,62408417.96,0.79%,11870088.27,0.15%,37914841.49,0.48%,7297015157.13,92.27%,5192152625.92,65.65%,1100284.62,0.01%,68288586.64,0.86%,,--,5899818950.5,1910617933.32,32.38%,3989201017.18,67.62%,000885
2017-09-30,3172885952.89,2119834291.24,66.81%,344383780.21,10.85%,48885190.05,1.54%,572124744.77,18.03%,1932831.77,0.06%,1053051661.65,33.19%,116467945.51,3.67%,185078605.74,5.83%,1470376.06,0.05%,,--,466688258.57,419082304.27,89.80%,47605954.3,10.20%,000886
2017-09-30,14847110793.68,8059482173.75,54.28%,1514198566.65,10.20%,2320833316.76,15.63%,2015953037.94,13.58%,120462907.6,0.81%,6787628619.93,45.72%,2585715926.55,17.42%,357321116.1,2.41%,57792013.91,0.39%,,--,7441574565.5,3325176412.28,44.68%,4116398153.22,55.32%,000887
2017-12-31,2699426069.83,923532011.34,34.21%,742962429.85,27.52%,21438386.27,0.79%,54894495.59,2.03%,4412500.68,0.16%,1775894058.49,65.79%,1395383003.59,51.69%,170543935.23,6.32%,18483092.51,0.68%,,--,480478907.6,264956914.69,55.14%,215521992.91,44.86%,000888
2017-09-30,3069878176.01,1196940572.71,38.99%,151585075.5,4.94%,713016775.01,23.23%,2059693.45,0.07%,38948576.18,1.27%,1872937603.3,61.01%,73975198.34,2.41%,51368560.13,1.67%,1066957.81,0.03%,,--,460012850.84,457525156.14,99.46%,2487694.7,0.54%,000889
2017-09-30,11133052400.11,7806571724.71,70.12%,1387466804.71,12.46%,676761262.33,6.08%,368341725.63,3.31%,194219586.7,1.74%,3326480675.4,29.88%,253457541.08,2.28%,77868415.8,0.70%,183140.75,0.00%,,--,10163936508.34,7498214389.24,73.77%,2665722119.1,26.23%,000890
2017-09-30,3289107687.08,3208777697.14,97.56%,769243548.17,23.39%,529105106.6,16.09%,992052211.51,30.16%,310205776.86,9.43%,80329989.94,2.44%,37314174.66,1.13%,6338734.18,0.19%,1199213.9,0.04%,,--,611451299.18,571451299.18,93.46%,40000000,6.54%,000892
2017-09-30,5138625604.7,845469504.61,16.45%,243107821.85,4.73%,57654000.48,1.12%,70883542.98,1.38%,200719429.86,3.91%,4293156100.09,83.55%,650486067.41,12.66%,3494552907.79,68.01%,3163496.56,0.06%,,--,521852798.12,521852798.12,100.00%,,--,000893
2017-09-30,22203845940.87,8431651087.75,37.97%,5068440765.73,22.83%,109764261.58,0.49%,2784665092.53,12.54%,37953007.36,0.17%,13772194853.12,62.03%,11624941125.34,52.36%,1052751385.34,4.74%,68341927.2,0.31%,,--,7833155835.83,7674686148.42,97.98%,158469687.41,2.02%,000895
2017-09-30,6102311737.1,5910732703.05,96.86%,1082147435.84,17.73%,96015208.39,1.57%,4593730607.94,75.28%,3650087.01,0.06%,191579034.05,3.14%,9426735.4,0.15%,631389.62,0.01%,589203.8,0.01%,,--,4656069656.82,3256703284.5,69.95%,1399366372.32,30.05%,000897
2017-09-30,88235000000,27249000000,30.88%,1915000000,2.17%,2078000000,2.36%,11615000000,13.16%,1565000000,1.77%,60986000000,69.12%,47470000000,53.80%,6234000000,7.07%,,--,,--,40107000000,34201000000,85.27%,5906000000,14.73%,000898
2017-09-30,7497158041.67,1726998166.14,23.04%,1237752228.88,16.51%,166874035.58,2.23%,127008818.72,1.69%,6018649.65,0.08%,5770159875.53,76.96%,3424534899.6,45.68%,2914513.26,0.04%,,--,,--,2873917189.88,1753958352.91,61.03%,1119958836.97,38.97%,000899
2017-09-30,23237457854.06,7390199830.71,31.80%,2751872226.18,11.84%,387333433.48,1.67%,877761214.19,3.78%,697396731.13,3.00%,15847258023.35,68.20%,2272893070.54,9.78%,9943346573.01,42.79%,83932397.62,0.36%,,--,14602570928.26,7443754924.29,50.98%,7158816003.97,49.02%,000900
2017-09-30,6084355289.97,3477703201.61,57.16%,760728024.83,12.50%,1131377838.1,18.59%,1085065039.67,17.83%,215787031.75,3.55%,2606652088.36,42.84%,851658924.43,14.00%,310271281.33,5.10%,8020624.13,0.13%,,--,2185019538.55,1598412184.76,73.15%,586607353.79,26.85%,000901
2017-09-30,8494556657.07,4949013987.41,58.26%,1308596621.86,15.41%,341175769.46,4.02%,1226845369.5,14.44%,775326537.84,9.13%,3545542669.66,41.74%,2470701271.22,29.09%,480344412.14,5.65%,38786962.77,0.46%,,--,2741700881.35,2620880188.6,95.59%,120820692.75,4.41%,000902
2017-09-30,9469387469.06,6059712676.47,63.99%,1730121408.61,18.27%,1093133918.05,11.54%,1418272187.13,14.98%,24888759.54,0.26%,3409674792.59,36.01%,1868409504.64,19.73%,495711359.12,5.23%,,--,,--,4886771193.96,3704666896.49,75.81%,1182104297.47,24.19%,000903
2017-09-30,7208288847.26,2734843513.58,37.94%,287291043.82,3.99%,927169851.26,12.86%,625016284.75,8.67%,577719305.97,8.01%,4473445333.68,62.06%,2782592510.26,38.60%,806014140.36,11.18%,18240756.98,0.25%,,--,3848907852.88,2337007697.07,60.72%,1511900155.81,39.28%,000905
2017-09-30,9828696858.09,8345976759.02,84.91%,1564315015.58,15.92%,2434223387.99,24.77%,1442225276.9,14.67%,1966753414.67,20.01%,1482720099.07,15.09%,467984179.49,4.76%,229487948.61,2.33%,20328398.91,0.21%,,--,7855411481.07,7561835741.07,96.26%,293575740,3.74%,000906
2017-09-30,5195938601.59,2996283235.62,57.67%,612089624.76,11.78%,559623167.38,10.77%,340924836.6,6.56%,313749855.24,6.04%,2199655365.97,42.33%,696640657.25,13.41%,88266442.4,1.70%,51378787.97,0.99%,,--,2628851705.71,1294211521.44,49.23%,1334640184.27,50.77%,000908
2017-09-30,4498695616.06,3793522316.49,84.32%,666399873.09,14.81%,291743293.95,6.49%,2334863834.26,51.90%,113480422.85,2.52%,705173299.57,15.68%,19894578.2,0.44%,7195692.54,0.16%,691281.12,0.02%,,--,3245381666.1,2173786777.78,66.98%,1071594888.32,33.02%,000909
2017-12-31,6341816428.27,4348638464.18,68.57%,1565866621.06,24.69%,724197869.99,11.42%,1637532219.7,25.82%,89726027.71,1.41%,1993177964.09,31.43%,1062017582.64,16.75%,553062365.04,8.72%,,--,,--,2672059005.47,2672059005.47,100.00%,,--,000910
2017-09-30,6830891514.46,3587548745.57,52.52%,1142794499.15,16.73%,341021169.59,4.99%,1005205244.86,14.72%,437946583.5,6.41%,3243342768.89,47.48%,1540779315.09,22.56%,526451823.29,7.71%,428179795.07,6.27%,,--,5328857617.94,4221673518.02,79.22%,1107184099.92,20.78%,000911
2017-09-30,7328867719.56,1052545497.74,14.36%,212129616.43,2.89%,10180403.17,0.14%,293105171.47,4.00%,227746182.21,3.11%,6276322221.82,85.64%,5705100067.72,77.84%,234095918.28,3.19%,,--,,--,7327704637.31,3704423645.29,50.55%,3623280992.02,49.45%,000912
2017-09-30,3834314348.03,2064087328.75,53.83%,510219588.88,13.31%,471305522.07,12.29%,711406093.05,18.55%,29147107.1,0.76%,1770227019.28,46.17%,743254541.77,19.38%,146138561.8,3.81%,6764490.78,0.18%,,--,1349679678.85,1090405906.57,80.79%,259273772.28,19.21%,000913
2017-12-31,2775008183.76,1469878123.18,52.97%,706857849.28,25.47%,230681037.5,8.31%,113077996.67,4.07%,43406255.65,1.56%,1305130060.58,47.03%,642612138.53,23.16%,86353403.78,3.11%,13308157.51,0.48%,,--,556365412.95,547976230.55,98.49%,8389182.4,1.51%,000915
2017-09-30,23141435593.66,7962004084.26,34.41%,1426204614.4,6.16%,685810783.54,2.96%,3342629993.6,14.44%,1023009668.25,4.42%,15179431509.4,65.59%,5925342711.2,25.60%,852237189.2,3.68%,39673624.25,0.17%,,--,11445371232.04,5082622780.94,44.41%,6362748451.1,55.59%,000917
2017-09-30,33271691312.78,26945127953.41,80.99%,1920637085.46,5.77%,129393083.85,0.39%,21738058685.55,65.33%,167067214.71,0.50%,6326563359.37,19.01%,309434800.52,0.93%,18813766.34,0.06%,29406729.07,0.09%,,--,30928941110.12,23705298739.53,76.64%,7223642370.59,23.36%,000918
2017-09-30,3975963080.98,2582364538.4,64.95%,867029047.03,21.81%,586063239.05,14.74%,430976804.39,10.84%,37490343.73,0.94%,1393598542.58,35.05%,943081821.3,23.72%,124753380.02,3.14%,1409741.58,0.04%,,--,853893635.11,829667088.24,97.16%,24226546.87,2.84%,000919
2017-09-30,1893152020.89,546458688.27,28.87%,316707207.81,16.73%,48705351.56,2.57%,111004918.96,5.86%,31552070.09,1.67%,1346693332.62,71.13%,476718452.99,25.18%,99617473.26,5.26%,1267044.57,0.07%,,--,925654964.55,549545412.83,59.37%,376109551.72,40.63%,000920
2017-09-30,21449313038.4,14977056925.52,69.83%,4317672293.41,20.13%,3256789801.62,15.18%,2726678929.49,12.71%,193168378.93,0.90%,6472256112.88,30.17%,3253970169.6,15.17%,719216918.68,3.35%,4604723.69,0.02%,,--,14749579056.71,14346915715.68,97.27%,402663341.03,2.73%,000921
2017-09-30,2864344222.23,2037076882.04,71.12%,296434389.46,10.35%,655533232.11,22.89%,439678460.48,15.35%,138660325.76,4.84%,827267340.19,28.88%,494681508.7,17.27%,171286667.5,5.98%,,--,,--,1377955951.41,1315163973.63,95.44%,62791977.78,4.56%,000922
2017-09-30,12909119408.69,6188327198.44,47.94%,3852154701.51,29.84%,1088035717.9,8.43%,1165788771.75,9.03%,27766126.77,0.22%,6720792210.25,52.06%,1386595161.89,10.74%,945530984.92,7.32%,,--,,--,4441781742.11,2464949459.96,55.49%,1976832282.15,44.51%,000923
2017-09-30,5499800867.44,2907146531.93,52.86%,697383606.68,12.68%,1382577364.55,25.14%,418150300.86,7.60%,134931525.67,2.45%,2592654335.51,47.14%,337249946.15,6.13%,854130801.15,15.53%,949492.52,0.02%,,--,3201893007.15,2894457548.06,90.40%,307435459.09,9.60%,000925
2017-09-30,46555429461.78,37009045115.04,79.49%,7740973645.18,16.63%,871029508.02,1.87%,18743203431.44,40.26%,8267596694.17,17.76%,9546384346.74,20.51%,1461429641.26,3.14%,60895120.71,0.13%,940100.1,0.00%,,--,34986707202.41,14319440215.09,40.93%,20667266987.32,59.07%,000926
2017-09-30,5102603444.76,2391309681.89,46.86%,1389627596.2,27.23%,12243604.87,0.24%,388038629.97,7.60%,53402124.17,1.05%,2711293762.87,53.14%,1207864594.02,23.67%,180181937.55,3.53%,3721760.94,0.07%,,--,4498122430.64,3993876122.41,88.79%,504246308.23,11.21%,000927
2017-09-30,13702489710.15,12184023148.47,88.92%,1337213108.17,9.76%,5292985244.33,38.63%,1625759562.56,11.86%,2060615092.53,15.04%,1518466561.68,11.08%,239944950.69,1.75%,298104710.66,2.18%,765804.54,0.01%,,--,9136783799.33,8995219001.35,98.45%,141564797.98,1.55%,000928
2017-09-30,1574188474.51,1222617945.8,77.67%,649650634.5,41.27%,33345558.46,2.12%,217631795.4,13.83%,39001520.84,2.48%,351570528.71,22.33%,260950588.48,16.58%,67820547.19,4.31%,,--,,--,406559026.47,400818913.14,98.59%,5740113.33,1.41%,000929
2017-09-30,5766673315.96,1840990263.84,31.92%,727597287.31,12.62%,325971441.43,5.65%,488795344.93,8.48%,61790772.64,1.07%,3925683052.12,68.08%,2217631011.5,38.46%,407596499.18,7.07%,3447454.96,0.06%,,--,3834962425.27,3067987057.89,80.00%,766975367.38,20.00%,000930
2017-09-30,3336330463.69,2110085590.16,63.25%,344432882.42,10.32%,757139536.3,22.69%,811770151.41,24.33%,62713931.25,1.88%,1226244873.53,36.75%,491656143.23,14.74%,31969868.52,0.96%,34022847.8,1.02%,,--,1592030638.23,1176536527.43,73.90%,415494110.8,26.10%,000931
2017-12-31,74929816655.53,29859175637.42,39.85%,5789100950.98,7.73%,2680473734.17,3.58%,7760806583.25,10.36%,1016259877.68,1.36%,45070641018.11,60.15%,39827208440.97,53.15%,3915600503.67,5.23%,,--,,--,60348990668.57,47920357605.36,79.41%,12428633063.21,20.59%,000932
2017-09-30,52757985421.92,17328631017.71,32.85%,7621476262.86,14.45%,467450931.21,0.89%,5469677696.77,10.37%,1115702824.04,2.11%,35429354404.21,67.15%,19360692983.68,36.70%,4978849358.04,9.44%,652480855.3,1.24%,,--,44261016231.4,35443005586.78,80.08%,8818010644.62,19.92%,000933
2017-09-30,5733626130.13,890741380.17,15.54%,174396359.65,3.04%,248201408.67,4.33%,169027316.87,2.95%,17783340.27,0.31%,4842884749.96,84.46%,3948993219.08,68.87%,357109487.28,6.23%,,--,,--,2277634557.12,2201904680.12,96.68%,75729877,3.32%,000935
2017-09-30,11085990544.41,3316128854.83,29.91%,1774889682.19,16.01%,286321249.25,2.58%,228848005.1,2.06%,139948533.28,1.26%,7769861689.58,70.09%,332081850.24,3.00%,20338698.82,0.18%,9749578.51,0.09%,,--,6204516885.54,1931862605.39,31.14%,4272654280.15,68.86%,000936
2017-09-30,46110642196.61,18231540977.83,39.54%,5284020472.77,11.46%,4020795501.36,8.72%,966151811.07,2.10%,111972957.37,0.24%,27879101218.78,60.46%,14170218072.12,30.73%,5663852342.42,12.28%,23196384.4,0.05%,,--,25210578325.28,13914528310.9,55.19%,11296050014.38,44.81%,000937
2017-09-30,40896207740.5,19231485828.41,47.03%,3607481142.18,8.82%,5209257467.28,12.74%,4521406740.41,11.06%,682960086.25,1.67%,21664721912.09,52.97%,389087342.73,0.95%,3716517921.74,9.09%,1029677628.05,2.52%,,--,12157436281.31,11037210632.22,90.79%,1120225649.09,9.21%,000938
2017-09-30,39902382395.02,12728874365.25,31.90%,2935091376,7.36%,3014962409.8,7.56%,4006330121,10.04%,1532153014.89,3.84%,27173508029.77,68.10%,14498423721.42,36.33%,1450618310,3.64%,187878710.35,0.47%,,--,26715989837.37,10349480005.31,38.74%,16366509832.06,61.26%,000939
2017-09-30,2700602131.23,1869081522.47,69.21%,311126568.26,11.52%,729892665.61,27.03%,562412461.1,20.83%,67070479.06,2.48%,831520608.76,30.79%,235594216.79,8.72%,43999072.31,1.63%,1947334.72,0.07%,,--,1314335352.06,1223234995.64,93.07%,91100356.42,6.93%,000948
2017-09-30,6656192706.63,2285691233.28,34.34%,546295856.32,8.21%,344437123.52,5.17%,906496773,13.62%,94491267.25,1.42%,4370501473.35,65.66%,2996452587.03,45.02%,77385549.07,1.16%,,--,,--,3060409066.76,1505391418.3,49.19%,1555017648.46,50.81%,000949
2017-09-30,15623950658.25,12964515890.65,82.98%,2403118520.63,15.38%,7760229649.74,49.67%,2074767483.1,13.28%,342123760.63,2.19%,2659434767.6,17.02%,489864595.68,3.14%,197240703.02,1.26%,38667204.58,0.25%,,--,8570394179.15,8317811510.08,97.05%,252582669.07,2.95%,000950
2017-09-30,27889447419.18,25755578604.29,92.35%,1259496837.85,4.52%,4418769117.42,15.84%,6941528595.12,24.89%,152164139.11,0.55%,2133868814.89,7.65%,1292718201.44,4.64%,371053742.4,1.33%,,--,,--,21733889910.05,21516671593.28,99.00%,217218316.77,1.00%,000951
2017-09-30,1698568579.84,481051480.62,28.32%,133739513.21,7.87%,112951685.69,6.65%,127178855.19,7.49%,11825180.11,0.70%,1217517099.22,71.68%,868287512.31,51.12%,164884118.39,9.71%,619151.16,0.04%,,--,955966031,838437522.13,87.71%,117528508.87,12.29%,000952
2017-12-31,817878116.61,294983333.04,36.07%,194391639.37,23.77%,8661528.98,1.06%,33475391.55,4.09%,4324215.85,0.53%,522894783.57,63.93%,510197630.73,62.38%,,--,2036574.94,0.25%,,--,794576676.69,791027230.16,99.55%,3549446.53,0.45%,000953
2017-09-30,1407844181.13,683169901.64,48.53%,281390302.49,19.99%,103169746.37,7.33%,83710207.24,5.95%,24154727.52,1.72%,724674279.49,51.47%,461740884.51,32.80%,108350083.06,7.70%,2440058.99,0.17%,,--,704808164.65,330254842.04,46.86%,374553322.61,53.14%,000955
2017-09-30,10804511304.44,9069565551.86,83.94%,1624754074.91,15.04%,5541565555.1,51.29%,696837316.44,6.45%,53356922.9,0.49%,1734945752.58,16.06%,1147461509.71,10.62%,342734184.69,3.17%,,--,,--,8091450092.54,6822783905.78,84.32%,1268666186.76,15.68%,000957
2017-09-30,6664135834.06,1155446971.25,17.34%,567774405.13,8.52%,338818304.65,5.08%,75504972.29,1.13%,22526460.77,0.34%,5508688862.81,82.66%,3909678963.14,58.67%,263779630.86,3.96%,13610175.34,0.20%,,--,3922821814.77,1254672147.36,31.98%,2668149667.41,68.02%,000958
2017-09-30,132100842105.03,20227816381.62,15.31%,2891744403.39,2.19%,1186367908.78,0.90%,6150422882.23,4.66%,2713887150,2.05%,111873025723.41,84.69%,74775035581.74,56.60%,2677386601.46,2.03%,,--,,--,96635681154.09,56169638551.94,58.13%,40466042602.15,41.87%,000959
2017-09-30,30549666148.06,10760679592.2,35.22%,4551607205.5,14.90%,1093222184.92,3.58%,3104408061.62,10.16%,344984453.46,1.13%,19788986555.86,64.78%,11358333789.1,37.18%,3863070450.09,12.65%,749049590.2,2.45%,,--,18516101204.71,14646474593.18,79.10%,3869626611.53,20.90%,000960
2017-09-30,150747207872.61,143432882216.42,95.15%,12575693367.83,8.34%,6814191061.79,4.52%,96442268955.95,63.98%,12271098086.65,8.14%,7314325656.19,4.85%,2277399489.33,1.51%,599041308.8,0.40%,146462249.9,0.10%,,--,134166412480.6,95549178181.48,71.22%,38617234299.12,28.78%,000961
2017-09-30,2272238189.89,963204733.33,42.39%,299245331.43,13.17%,214014634.35,9.42%,331582369.58,14.59%,14398014.09,0.63%,1309033456.56,57.61%,1104187446.64,48.59%,145442132.84,6.40%,,--,,--,923379941.87,610719025.43,66.14%,312660916.44,33.86%,000962
2017-09-30,15784212697.28,12806462553.8,81.13%,1723721634.34,10.92%,6353135322.69,40.25%,2978046187.14,18.87%,374927626.48,2.38%,2977750143.48,18.87%,1778813016.36,11.27%,561285383.72,3.56%,14750988.93,0.09%,,--,7278563964.06,6249923906.43,85.87%,1028640057.63,14.13%,000963
2017-09-30,10284691417.99,8756535611.33,85.14%,3291410084.09,32.00%,11744866.96,0.11%,4944003588.94,48.07%,6048701.65,0.06%,1528155806.66,14.86%,105807369.39,1.03%,175913.07,0.00%,13539306.85,0.13%,,--,5408534123.24,3343731769.23,61.82%,2064802354.01,38.18%,000965
2017-09-30,9274946536.52,1252504232.58,13.50%,294260024.96,3.17%,350422441.55,3.78%,202822089.19,2.19%,295357364.81,3.18%,8022442303.94,86.50%,6490743750.51,69.98%,252075118.9,2.72%,,--,,--,5671677883.26,3796579647.84,66.94%,1875098235.42,33.06%,000966
2017-09-30,6925160635.01,3944859600.01,56.96%,461964087.52,6.67%,1793488401.69,25.90%,298408969.39,4.31%,221572687.05,3.20%,2980301035,43.04%,317269151.97,4.58%,242554890.58,3.50%,10909359.74,0.16%,,--,3189379382.65,2481135963.26,77.79%,708243419.39,22.21%,000967
2017-09-30,7057715214.17,2843141246.98,40.28%,1015522001.98,14.39%,974932408.18,13.81%,222133061.56,3.15%,36790485.02,0.52%,4214573967.19,59.72%,3137057000.99,44.45%,64839974.15,0.92%,13555404.13,0.19%,,--,3971566016.33,1923036806.77,48.42%,2048529209.56,51.58%,000968
2017-09-30,10036359617.85,4473603352.78,44.57%,808418174.86,8.05%,1320953025.58,13.16%,1545138266.71,15.40%,238163949.85,2.37%,5562756265.07,55.43%,2913675999.85,29.03%,553445792.32,5.51%,37129708.73,0.37%,,--,4151718701.37,3247722894.88,78.23%,903995806.49,21.77%,000969
2017-09-30,5963576703.94,4302987452.59,72.15%,1357389358.88,22.76%,946844078.08,15.88%,1434067363.31,24.05%,14609567.95,0.24%,1660589251.35,27.85%,890330751.07,14.93%,89529312.41,1.50%,281020.28,0.00%,,--,997689851.25,930237035.5,93.24%,67452815.75,6.76%,000970
2017-09-30,3889122092.67,979486206.74,25.19%,376575110.48,9.68%,271514201.05,6.98%,,--,50936157.31,1.31%,2909635885.93,74.81%,344574324.21,8.86%,54429417.1,1.40%,13954811.17,0.36%,,--,232808892.3,219608915.13,94.33%,13199977.17,5.67%,000971
2017-09-30,2453934892.32,1286050170.26,52.41%,133235643.14,5.43%,128629151.04,5.24%,893820284.49,36.42%,33961142.5,1.38%,1167884722.06,47.59%,781341142.48,31.84%,93999274.56,3.83%,,--,,--,1541115300.11,1493826140.28,96.93%,47289159.83,3.07%,000972
2017-09-30,5472119822.52,2434553069.86,44.49%,783789230.52,14.32%,282560642.47,5.16%,959599529.89,17.54%,42151548.73,0.77%,3037566752.66,55.51%,1442625880.26,26.36%,258089658.86,4.72%,4167522.59,0.08%,,--,3064348525.77,2131965277.44,69.57%,932383248.33,30.43%,000973
2017-09-30,5393485634.16,1370234241.38,25.41%,123403038.92,2.29%,2494213.88,0.05%,174337174.42,3.23%,5081049.87,0.09%,4023251392.78,74.59%,632348444.19,11.72%,2632672102.73,48.81%,2607836.94,0.05%,,--,458317465.22,455181162.52,99.32%,3136302.7,0.68%,000975
2017-09-30,4548212318.57,1693907262.35,37.24%,357430104.78,7.86%,694845746.5,15.28%,299210733.13,6.58%,2949247.91,0.06%,2854305056.22,62.76%,171886111.13,3.78%,58780697.73,1.29%,1447806.84,0.03%,,--,740278158.24,713216451.29,96.34%,27061706.95,3.66%,000976
2017-09-30,15557221848.99,13607633806,87.47%,2089001215.07,13.43%,3980591748.48,25.59%,3556751150.11,22.86%,324118640.57,2.08%,1949588042.99,12.53%,405773029.05,2.61%,580762352.83,3.73%,23159852.73,0.15%,,--,8446881063.18,8031613619.73,95.08%,415267443.45,4.92%,000977
2017-09-30,2693308049.3,338481798.95,12.57%,107477145.5,3.99%,108069301.81,4.01%,76624629.23,2.85%,5124549.21,0.19%,2354826250.35,87.43%,1023273449.39,37.99%,509025639.06,18.90%,25156642.36,0.93%,,--,1104389397.22,479475969.09,43.42%,624913428.13,56.58%,000978
2017-09-30,39541106990.04,33099266567.13,83.71%,4852391991.82,12.27%,1943598300.78,4.92%,23332801060.55,59.01%,2169911512.92,5.49%,6441840422.91,16.29%,516442021.39,1.31%,89565281.59,0.23%,11347422.3,0.03%,,--,28553274423.57,17980806421.22,62.97%,10572468002.35,37.03%,000979
2017-09-30,31307922325.45,16662697775.73,53.22%,5281241692.75,16.87%,3742153929.94,11.95%,3442830357.29,11.00%,1584164069.82,5.06%,14645224549.72,46.78%,2898282092.72,9.26%,4413748505.45,14.10%,3519856.05,0.01%,,--,15155469363.54,13724197647.49,90.56%,1431271716.05,9.44%,000980
2017-09-30,30008577917.24,23416412444.81,78.03%,3312498529.1,11.04%,698456329.38,2.33%,17173333988.58,57.23%,1130957290.78,3.77%,6592165472.43,21.97%,1473324015.02,4.91%,258454412.27,0.86%,20631190.34,0.07%,,--,20207652054.27,11626865683.26,57.54%,8580786371.01,42.46%,000981
2017-09-30,11583835842.86,4859286212.41,41.95%,345661045.93,2.98%,1274354122.83,11.00%,2404711294.97,20.76%,312969784.85,2.70%,6724549630.45,58.05%,5387524551.17,46.51%,192387204.67,1.66%,6766388.34,0.06%,,--,10101052175.19,8237516307.12,81.55%,1863535868.07,18.45%,000982
2017-09-30,57711950664.38,17920823043.7,31.05%,3765955091.51,6.53%,4023521647.22,6.97%,3554442599.04,6.16%,467745529.26,0.81%,39791127620.68,68.95%,21681366548.11,37.57%,3087661795.16,5.35%,27314634.29,0.05%,,--,36395932092.84,22660079024.04,62.26%,13735853068.8,37.74%,000983
2017-09-30,712347455.04,289052550.5,40.58%,248508440.47,34.89%,215257.32,0.03%,37701959.27,5.29%,284619.96,0.04%,423294904.54,59.42%,373902657.45,52.49%,11580916.14,1.63%,2356032.7,0.33%,,--,170172195.68,122458769.53,71.96%,47713426.15,28.04%,000985
2017-09-30,77769263074.51,44921848180.22,57.76%,9580886028.95,12.32%,160826484.18,0.21%,96450813.38,0.12%,35355856.95,0.05%,32847414894.29,42.24%,228025180.12,0.29%,70836115.66,0.09%,103977791.42,0.13%,,--,59610182520.24,36755393816.21,61.66%,22854788704.03,38.34%,000987
2017-09-30,6678592190.93,4759388432.39,71.26%,957190474.86,14.33%,2174108875.83,32.55%,953559890.52,14.28%,187678737.15,2.81%,1919203758.54,28.74%,1152153049.19,17.25%,220760659.6,3.31%,12236174.47,0.18%,,--,3198706012.04,3045612766.45,95.21%,153093245.59,4.79%,000988
2017-09-30,5667546754.75,3497668618.31,61.71%,159773934.33,2.82%,1156268290.82,20.40%,585668198.53,10.33%,80775094.78,1.43%,2169878136.44,38.29%,1128421965.43,19.91%,274533486.81,4.84%,39121171.18,0.69%,,--,1362490952.68,1265196213.35,92.86%,97294739.33,7.14%,000989
2017-09-30,20767660287.1,6484218961.52,31.22%,1903386248.19,9.17%,1170328689.31,5.64%,588314073.89,2.83%,463239578.58,2.23%,14283441325.58,68.78%,4306238324.43,20.74%,593285690.29,2.86%,46581567.58,0.22%,,--,4706162972.84,4172308737.81,88.66%,533854235.03,11.34%,000990
2017-09-30,3762142337.18,910568475.13,24.20%,127676875.75,3.39%,110503104.05,2.94%,528047064.69,14.04%,11264593.96,0.30%,2851573862.05,75.80%,1594060874.93,42.37%,77096479.23,2.05%,5558435.44,0.15%,,--,2055972196.37,1126173944.78,54.78%,929798251.59,45.22%,000993
2017-09-30,368151757.2,196505763.72,53.38%,2277439.08,0.62%,624508.36,0.17%,168870296.91,45.87%,22938985.02,6.23%,171645993.48,46.62%,78170116.87,21.23%,88474092.38,24.03%,,--,,--,390622904.75,351309343.03,89.94%,39313561.72,10.06%,000995
2017-09-30,692555406.6,184335314.95,26.62%,152764766.15,22.06%,176532.68,0.03%,18004881.79,2.60%,10261785.05,1.48%,508220091.65,73.38%,4062649.91,0.59%,181424.93,0.03%,231093.05,0.03%,,--,54122269.96,20341350.03,37.58%,33780919.93,62.42%,000996
2017-09-30,8871553157.59,6964211974.47,78.50%,2388433031.76,26.92%,824637067.46,9.30%,1093879127.82,12.33%,89147706.8,1.00%,1907341183.12,21.50%,154528896.35,1.74%,165486750.83,1.87%,21277401.55,0.24%,,--,4066155888.74,3991147225.89,98.16%,75008662.85,1.84%,000997
2017-09-30,8648733718.58,5307345197.78,61.37%,960925703.98,11.11%,386501064.39,4.47%,1742244732.57,20.14%,267696148.94,3.10%,3341388520.8,38.63%,873430664.61,10.10%,669719038.59,7.74%,50955368.16,0.59%,,--,2826184469.99,2758790938.29,97.62%,67393531.7,2.38%,000998
