日期,股东名称,股东性质,股份类型,持股数(股),占总流通股本持股比例,增减(股),变动比例,code
2016-09-30,葛卫东,个人,A股,128275200,0.88%,不变,--,000001
2017-09-30,汪国新,个人,A股,1436407,1.73%,106368,8.00%,000004
2017-09-30,谢林波,个人,A股,1324247,1.60%,222047,20.15%,000004
2017-09-30,周建新,个人,A股,1072712,1.29%,不变,--,000004
2017-06-30,汪国新,个人,A股,1330039,1.60%,新进,--,000004
2017-06-30,谢林波,个人,A股,1102200,1.33%,新进,--,000004
2017-06-30,周建新,个人,A股,1072712,1.29%,不变,--,000004
2017-06-30,林倩羽,个人,A股,750000,0.90%,新进,--,000004
2017-03-31,陈权健,个人,A股,1251803,1.51%,新进,--,000004
2017-03-31,周建新,个人,A股,1072712,1.29%,不变,--,000004
2017-03-31,孙丽丽,个人,A股,567198,0.68%,新进,--,000004
2016-12-31,祝丽娜,个人,A股,1794961,2.16%,1401361,356.04%,000004
2016-12-31,周建新,个人,A股,1072712,1.29%,不变,--,000004
2016-09-30,周建新,个人,A股,1072712,1.29%,不变,--,000004
2016-09-30,祝丽娜,个人,A股,393600,0.47%,新进,--,000004
2017-09-30,林丹娜,个人,A股,20125613,2.12%,不变,--,000005
2017-09-30,陈子云,个人,A股,4369200,0.46%,新进,--,000005
2017-09-30,禹宙,个人,A股,3660000,0.38%,新进,--,000005
2017-06-30,林丹娜,个人,A股,20125613,2.12%,不变,--,000005
2017-06-30,陈昆柏,个人,A股,3323500,0.35%,423500,14.60%,000005
2017-03-31,林丹娜,个人,A股,20125613,2.12%,不变,--,000005
2017-03-31,董志云,个人,A股,3050000,0.32%,新进,--,000005
2017-03-31,陈昆柏,个人,A股,2900000,0.30%,新进,--,000005
2016-12-31,林丹娜,个人,A股,20125613,2.20%,不变,--,000005
2016-12-31,陈艳香,个人,A股,4242235,0.46%,818035,23.89%,000005
2016-09-30,林丹娜,个人,A股,20125613,2.20%,不变,--,000005
2016-09-30,梁碧玉,个人,A股,8310000,0.91%,-4745600,-36.35%,000005
2016-09-30,林丽群,个人,A股,7866613,0.86%,不变,--,000005
2016-09-30,郭俊文,个人,A股,4248600,0.46%,不变,--,000005
2016-09-30,陈艳香,个人,A股,3424200,0.37%,-906500,-20.93%,000005
2016-09-30,黄薇,个人,A股,2600000,0.28%,新进,--,000005
2017-09-30,聂智,个人,A股,7104876,0.53%,5000,0.07%,000006
2017-09-30,张德锋,个人,A股,6314900,0.47%,532600,9.21%,000006
2017-09-30,廖晔,个人,A股,4993300,0.37%,82900,1.69%,000006
2017-09-30,曾运龙,个人,A股,4518800,0.34%,30000,0.67%,000006
2017-06-30,聂智,个人,A股,7099876,0.53%,-11600,-0.16%,000006
2017-06-30,张德锋,个人,A股,5782300,0.43%,5100,0.09%,000006
2017-06-30,廖晔,个人,A股,4910400,0.37%,529100,12.08%,000006
2017-06-30,曾运龙,个人,A股,4488800,0.33%,新进,--,000006
2017-03-31,聂智,个人,A股,7111476,0.53%,8000,0.11%,000006
2017-03-31,江安东,个人,A股,6550000,0.49%,不变,--,000006
2017-03-31,张德锋,个人,A股,5777200,0.43%,210200,3.78%,000006
2017-03-31,廖晔,个人,A股,4381300,0.33%,446800,11.36%,000006
2017-03-31,郑淑贤,个人,A股,3859200,0.29%,新进,--,000006
2016-12-31,聂智,个人,A股,7103476,0.53%,9700,0.14%,000006
2016-12-31,江安东,个人,A股,6550000,0.49%,-491700,-6.98%,000006
2016-12-31,张德锋,个人,A股,5567000,0.41%,新进,--,000006
2016-12-31,廖晔,个人,A股,3934500,0.29%,新进,--,000006
2016-12-31,刘瑶,个人,A股,3657759,0.27%,新进,--,000006
2016-09-30,陈丽芬,个人,A股,8980000,0.67%,-1010000,-10.11%,000006
2016-09-30,聂智,个人,A股,7093776,0.53%,不变,--,000006
2016-09-30,江安东,个人,A股,7041700,0.52%,不变,--,000006
2017-09-30,陈卓婷,个人,A股,13493872,4.37%,不变,--,000007
2017-09-30,王昕,个人,A股,6298001,2.04%,新进,--,000007
2017-09-30,陆炜,个人,A股,3271950,1.06%,不变,--,000007
2017-06-30,陈卓婷,个人,A股,13493872,4.37%,4497957,50.00%,000007
2017-06-30,陆炜,个人,A股,3271950,1.06%,1090650,50.00%,000007
2017-06-30,阳德惠,个人,A股,3004650,0.97%,1001550,50.00%,000007
2017-06-30,张洁,个人,A股,2967090,0.96%,989030,50.00%,000007
2017-03-31,陈卓婷,个人,A股,8995915,4.37%,不变,--,000007
2017-03-31,陆炜,个人,A股,2181300,1.06%,不变,--,000007
2017-03-31,阳德惠,个人,A股,2003100,0.97%,不变,--,000007
2017-03-31,张洁,个人,A股,1978060,0.96%,不变,--,000007
2016-12-31,陈卓婷,个人,A股,8995915,4.37%,不变,--,000007
2016-12-31,陆炜,个人,A股,2181300,1.06%,新进,--,000007
2016-12-31,阳德惠,个人,A股,2003100,0.97%,新进,--,000007
2016-12-31,张洁,个人,A股,1978060,0.96%,新进,--,000007
2016-09-30,陈卓婷,个人,A股,8995915,4.37%,1908200,26.92%,000007
2016-09-30,曾志强,个人,A股,1486150,0.72%,新进,--,000007
2016-09-30,欣平,个人,A股,1475601,0.72%,5600,0.38%,000007
2017-09-30,李颀,个人,A股,36162700,1.82%,-20000,-0.06%,000008
2017-06-30,文冰雪,个人,A股,54257138,2.71%,不变,--,000008
2017-06-30,李颀,个人,A股,36182700,1.81%,不变,--,000008
2017-03-31,文冰雪,个人,A股,54257138,2.70%,不变,--,000008
2017-03-31,李颀,个人,A股,36182700,1.80%,不变,--,000008
2016-12-31,文冰雪,个人,A股,54257138,3.63%,-80742862,-59.81%,000008
2016-12-31,李颀,个人,A股,36182700,2.42%,不变,--,000008
2016-12-31,池小军,个人,A股,28275984,1.89%,不变,--,000008
2016-12-31,王志全,个人,A股,19644935,1.31%,新进,--,000008
2016-09-30,文炳荣,个人,A股,313260360,20.95%,不变,--,000008
2016-09-30,文冰雪,个人,A股,135000000,9.03%,不变,--,000008
2016-09-30,文宝财,个人,A股,135000000,9.03%,不变,--,000008
2016-09-30,李颀,个人,A股,36182700,2.42%,不变,--,000008
2016-09-30,池小军,个人,A股,28275984,1.89%,不变,--,000008
2017-09-30,欧阳学荣,个人,A股,14907933,0.70%,不变,--,000009
2017-09-30,吴海涛,个人,A股,12783229,0.60%,-15000,-0.12%,000009
2017-09-30,聂仁和,个人,A股,10223728,0.48%,不变,--,000009
2017-09-30,曾静,个人,A股,8518819,0.40%,不变,--,000009
2017-09-30,朱棣铭,个人,A股,6000000,0.28%,不变,--,000009
2017-06-30,欧阳学荣,个人,A股,14907933,0.70%,不变,--,000009
2017-06-30,吴海涛,个人,A股,12798229,0.60%,20000,0.16%,000009
2017-06-30,聂仁和,个人,A股,10223728,0.48%,不变,--,000009
2017-06-30,曾静,个人,A股,8518819,0.40%,不变,--,000009
2017-06-30,朱棣铭,个人,A股,6000000,0.28%,-179483,-2.90%,000009
2017-03-31,欧阳学荣,个人,A股,14907933,0.70%,不变,--,000009
2017-03-31,吴海涛,个人,A股,12778229,0.60%,不变,--,000009
2017-03-31,聂仁和,个人,A股,10223728,0.48%,4000000,64.27%,000009
2017-03-31,张丽华,个人,A股,9260035,0.44%,不变,--,000009
2017-03-31,曾静,个人,A股,8518819,0.40%,不变,--,000009
2017-03-31,朱棣铭,个人,A股,6179483,0.29%,不变,--,000009
2016-12-31,欧阳学荣,个人,A股,14907933,0.70%,不变,--,000009
2016-12-31,吴海涛,个人,A股,12778229,0.60%,不变,--,000009
2016-12-31,张丽华,个人,A股,9260035,0.44%,新进,--,000009
2016-12-31,曾静,个人,A股,8518819,0.40%,不变,--,000009
2016-12-31,聂仁和,个人,A股,6223728,0.29%,新进,--,000009
2016-12-31,朱棣铭,个人,A股,6179483,0.29%,不变,--,000009
2016-09-30,欧阳学荣,个人,A股,14907933,0.70%,新进,--,000009
2016-09-30,吴海涛,个人,A股,12778229,0.60%,3312874,35.00%,000009
2016-09-30,王卫列,个人,A股,11000000,0.52%,-1500000,-12.00%,000009
2016-09-30,曾静,个人,A股,8518819,0.40%,2208583,35.00%,000009
2016-09-30,李立春,个人,A股,8029307,0.38%,新进,--,000009
2016-09-30,朱棣铭,个人,A股,6179483,0.29%,1602088,35.00%,000009
2016-09-30,陈小定,个人,A股,5951475,0.28%,1542975,35.00%,000009
2017-09-30,罗学军,个人,A股,4855047,0.93%,不变,--,000010
2017-06-30,罗学军,个人,A股,4855047,0.93%,新进,--,000010
2017-06-30,龙卫洋,个人,A股,2288400,0.44%,-13600,-0.59%,000010
2017-03-31,龙卫洋,个人,A股,2302000,0.44%,新进,--,000010
2016-12-31,左建强,个人,A股,2905785,0.71%,新进,--,000010
2016-12-31,周腾,个人,A股,2400000,0.59%,-270000,-10.11%,000010
2016-12-31,黄贤清,个人,A股,2146560,0.53%,不变,--,000010
2016-12-31,陈军耀,个人,A股,1845406,0.45%,新进,--,000010
2016-09-30,谢美珍,个人,A股,3159400,0.77%,新进,--,000010
2016-09-30,周腾,个人,A股,2670000,0.65%,新进,--,000010
2016-09-30,黄贤清,个人,A股,2146560,0.53%,不变,--,000010
2017-09-30,杜歆晔,个人,A股,3880800,1.59%,不变,--,000011
2017-09-30,周群,个人,A股,3115450,1.28%,不变,--,000011
2017-09-30,杜允丰,个人,A股,2323000,0.95%,不变,--,000011
2017-09-30,杨耀初,个人,B股,1410620,0.58%,90000,6.81%,000011
2017-09-30,麦富容,个人,B股,1330500,0.55%,-54300,-3.92%,000011
2017-09-30,高远雄,个人,A股,1140401,0.47%,新进,--,000011
2017-09-30,陈丽英,个人,B股,1102051,0.45%,不变,--,000011
2017-09-30,李京,个人,B股,962440,0.40%,不变,--,000011
2017-09-30,曹益凡,个人,B股,848000,0.35%,新进,--,000011
2017-06-30,杜歆晔,个人,A股,3880800,1.59%,不变,--,000011
2017-06-30,周群,个人,A股,3115450,1.28%,不变,--,000011
2017-06-30,杜允丰,个人,A股,2323000,0.95%,不变,--,000011
2017-06-30,麦富容,个人,B股,1384800,0.57%,不变,--,000011
2017-06-30,杨耀初,个人,B股,1320620,0.54%,不变,--,000011
2017-06-30,陈丽英,个人,B股,1102051,0.45%,26000,2.42%,000011
2017-06-30,李京,个人,B股,962440,0.40%,不变,--,000011
2017-06-30,刘嫦玲,个人,A股,910900,0.37%,-157577,-14.75%,000011
2017-03-31,杜歆晔,个人,A股,3880800,1.59%,不变,--,000011
2017-03-31,周群,个人,A股,3115450,1.28%,不变,--,000011
2017-03-31,杜允丰,个人,A股,2323000,0.95%,不变,--,000011
2017-03-31,麦富容,个人,B股,1384800,0.57%,-130000,-8.58%,000011
2017-03-31,杨耀初,个人,B股,1320620,0.54%,不变,--,000011
2017-03-31,陈丽英,个人,B股,1076051,0.44%,不变,--,000011
2017-03-31,刘嫦玲,个人,A股,1068477,0.44%,新进,--,000011
2017-03-31,李京,个人,B股,962440,0.40%,不变,--,000011
2016-12-31,杜歆晔,个人,A股,3880800,1.59%,不变,--,000011
2016-12-31,周群,个人,A股,3115450,1.28%,不变,--,000011
2016-12-31,杜允丰,个人,A股,2323000,0.95%,100000,4.50%,000011
2016-12-31,麦富容,个人,B股,1514800,0.62%,200,0.01%,000011
2016-12-31,杨耀初,个人,B股,1320620,0.54%,10000,0.76%,000011
2016-12-31,陈丽英,个人,B股,1076051,0.44%,不变,--,000011
2016-12-31,李京,个人,B股,962440,0.40%,180700,23.12%,000011
2016-12-31,张捷,个人,A股,894988,0.37%,新进,--,000011
2016-09-30,杜歆晔,个人,A股,3880800,1.59%,1355000,53.65%,000011
2016-09-30,周群,个人,A股,3115450,1.28%,477300,18.09%,000011
2016-09-30,杜允丰,个人,A股,2223000,0.91%,-60800,-2.66%,000011
2016-09-30,麦富容,个人,B股,1514600,0.62%,不变,--,000011
2016-09-30,杨耀初,个人,B股,1310620,0.54%,40000,3.15%,000011
2016-09-30,陈丽英,个人,B股,1076051,0.44%,不变,--,000011
2016-09-30,李京,个人,B股,781740,0.32%,新进,--,000011
2017-09-30,陈贺香,个人,A股,2388501,1.18%,不变,--,000014
2017-09-30,张丽萍,个人,A股,1440000,0.71%,不变,--,000014
2017-09-30,钟晓玲,个人,A股,1377001,0.68%,新进,--,000014
2017-09-30,钟以隆,个人,A股,988000,0.49%,新进,--,000014
2017-06-30,陈贺香,个人,A股,2388501,1.18%,不变,--,000014
2017-06-30,张丽萍,个人,A股,1440000,0.71%,不变,--,000014
2017-06-30,陈忠民,个人,A股,787535,0.39%,新进,--,000014
2017-03-31,徐志英,个人,A股,7554572,3.75%,新进,--,000014
2017-03-31,陈贺香,个人,A股,2388501,1.18%,不变,--,000014
2017-03-31,张丽萍,个人,A股,1440000,0.71%,新进,--,000014
2017-03-31,徐智刚,个人,A股,988000,0.49%,新进,--,000014
2016-12-31,陈贺香,个人,A股,2388501,1.18%,不变,--,000014
2016-12-31,傅爱珍,个人,A股,1407500,0.70%,-62600,-4.26%,000014
2016-12-31,惠燕红,个人,A股,1238222,0.61%,新进,--,000014
2016-09-30,陈贺香,个人,A股,2388501,1.18%,不变,--,000014
2016-09-30,傅爱珍,个人,A股,1470100,0.73%,237235,19.24%,000014
2016-09-30,王小洁,个人,A股,889300,0.44%,不变,--,000014
2017-09-30,王磊,个人,A股,37406339,1.55%,新进,--,000016
2017-09-30,NAM NGAI,个人,B股,22240040,0.92%,-295200,-1.31%,000016
2017-06-30,NAM NGAI,个人,B股,22535240,0.94%,不变,--,000016
2017-03-31,NAM NGAI,个人,B股,22535240,0.94%,-684800,-2.95%,000016
2017-03-31,蒙棣良,个人,A股,15000083,0.62%,不变,--,000016
2016-12-31,NAM NGAI,个人,B股,23220040,0.96%,-65000,-0.28%,000016
2016-12-31,蒙棣良,个人,A股,15000083,0.62%,1111200,8.00%,000016
2016-09-30,NAM NGAI,个人,B股,23285040,0.97%,不变,--,000016
2016-09-30,蒙棣良,个人,A股,13888883,0.58%,36900,0.27%,000016
2017-09-30,李惠丽,个人,B股,3891124,0.71%,不变,--,000017
2017-06-30,李惠丽,个人,B股,3891124,0.71%,不变,--,000017
2017-06-30,宗彬,个人,A股,3187180,0.58%,-138000,-4.15%,000017
2017-03-31,李惠丽,个人,B股,3891124,0.71%,不变,--,000017
2017-03-31,宗彬,个人,A股,3325180,0.60%,211000,6.78%,000017
2017-03-31,徐洪波,个人,B股,3137419,0.57%,不变,--,000017
2017-03-31,曾颖,个人,B股,3000000,0.54%,不变,--,000017
2016-12-31,李惠丽,个人,B股,3891124,0.71%,不变,--,000017
2016-12-31,徐洪波,个人,B股,3137419,0.57%,不变,--,000017
2016-12-31,宗彬,个人,A股,3114180,0.56%,60380,1.98%,000017
2016-12-31,曾颖,个人,B股,3000000,0.54%,不变,--,000017
2016-09-30,李惠丽,个人,B股,3891124,0.71%,不变,--,000017
2016-09-30,徐洪波,个人,B股,3137419,0.57%,不变,--,000017
2016-09-30,宗彬,个人,A股,3053800,0.55%,-38200,-1.24%,000017
2016-09-30,曾颖,个人,B股,3000000,0.54%,新进,--,000017
2017-09-30,黄怀岸,个人,A股,10115000,0.99%,不变,--,000018
2017-09-30,蔡宇,个人,A股,9000000,0.88%,新进,--,000018
2017-06-30,黄怀岸,个人,A股,10115000,0.99%,新进,--,000018
2017-03-31,姜伟,个人,A股,9573460,0.94%,-188400,-1.93%,000018
2016-12-31,姜伟,个人,A股,9761860,0.96%,新进,--,000018
2016-09-30,曾颖,个人,B股,5166000,0.80%,-1370000,-20.96%,000018
2016-09-30,宋文光,个人,B股,4372328,0.68%,927362,26.92%,000018
2016-09-30,陈立红,个人,B股,2293280,0.36%,新进,--,000018
2016-09-30,王影,个人,B股,2147140,0.33%,新进,--,000018
2017-09-30,孙慧明,个人,B股,3403262,0.73%,不变,--,000019
2017-09-30,胡祥主,个人,A股,1910000,0.41%,150000,8.52%,000019
2017-09-30,张岳,个人,A股,1392077,0.30%,1270,0.09%,000019
2017-09-30,李倩,个人,A股,1282678,0.27%,-149700,-10.45%,000019
2017-09-30,许砚慧,个人,A股,1072500,0.23%,不变,--,000019
2017-09-30,叶秀霞,个人,A股,1000230,0.21%,不变,--,000019
2017-06-30,孙慧明,个人,B股,3403262,0.73%,139487,4.27%,000019
2017-06-30,胡祥主,个人,A股,1760000,0.38%,新进,--,000019
2017-06-30,李倩,个人,A股,1432378,0.31%,67076,4.91%,000019
2017-06-30,张岳,个人,A股,1390807,0.30%,新进,--,000019
2017-06-30,许砚慧,个人,A股,1072500,0.23%,97500,10.00%,000019
2017-06-30,叶秀霞,个人,A股,1000230,0.21%,90930,10.00%,000019
2017-03-31,孙慧明,个人,B股,3263775,0.77%,不变,--,000019
2017-03-31,刘宗辉,个人,A股,3116000,0.73%,新进,--,000019
2017-03-31,李倩,个人,A股,1365302,0.32%,13000,0.96%,000019
2017-03-31,许砚慧,个人,A股,975000,0.23%,不变,--,000019
2017-03-31,叶秀霞,个人,A股,909300,0.21%,新进,--,000019
2017-03-31,陈宪平,个人,A股,900000,0.21%,新进,--,000019
2016-12-31,孙慧明,个人,B股,3263775,0.77%,不变,--,000019
2016-12-31,姜绪陆,个人,A股,1932700,0.45%,新进,--,000019
2016-12-31,姜绪荣,个人,A股,1895109,0.45%,新进,--,000019
2016-12-31,李倩,个人,A股,1352302,0.32%,新进,--,000019
2016-12-31,韩友群,个人,A股,1220000,0.29%,新进,--,000019
2016-12-31,许砚慧,个人,A股,975000,0.23%,不变,--,000019
2016-09-30,孙慧明,个人,B股,3263775,0.77%,不变,--,000019
2016-09-30,许砚慧,个人,A股,975000,0.23%,新进,--,000019
2016-09-30,张伟峰,个人,A股,909550,0.21%,新进,--,000019
2016-09-30,孙斌,个人,A股,861400,0.20%,新进,--,000019
2016-09-30,礼明,个人,A股,830400,0.20%,新进,--,000019
2016-09-30,张继国,个人,A股,769350,0.18%,新进,--,000019
2017-09-30,徐东冬,个人,A股,1690307,0.60%,不变,--,000020
2017-09-30,周红兵,个人,A股,1221800,0.43%,不变,--,000020
2017-09-30,钟佳潮,个人,A股,1096300,0.39%,27800,2.60%,000020
2017-09-30,LI SHERYN ZHAN MING,个人,B股,1072802,0.38%,新进,--,000020
2017-06-30,徐东冬,个人,A股,1690307,0.60%,不变,--,000020
2017-06-30,周红兵,个人,A股,1221800,0.43%,新进,--,000020
2017-06-30,钟佳潮,个人,A股,1068500,0.38%,158500,17.42%,000020
2017-03-31,徐东冬,个人,A股,1690307,0.60%,不变,--,000020
2017-03-31,黄树强,个人,A股,1187166,0.42%,12600,1.07%,000020
2017-03-31,LI SHERYN ZHAN MING,个人,B股,1059702,0.37%,新进,--,000020
2017-03-31,钟佳潮,个人,A股,910000,0.32%,-334440,-26.87%,000020
2016-12-31,徐东冬,个人,A股,1690307,0.60%,不变,--,000020
2016-12-31,钟佳潮,个人,A股,1244440,0.44%,614440,97.53%,000020
2016-12-31,黄树强,个人,A股,1174566,0.41%,新进,--,000020
2016-12-31,BINGHUA LIU,个人,B股,840113,0.30%,不变,--,000020
2016-12-31,朱雄辉,个人,B股,661780,0.23%,-5400,-0.81%,000020
2016-12-31,黄庆鹏,个人,A股,656500,0.23%,新进,--,000020
2016-09-30,徐东冬,个人,A股,1690307,0.60%,不变,--,000020
2016-09-30,江良梧,个人,A股,1059800,0.37%,新进,--,000020
2016-09-30,BINGHUA LIU,个人,B股,840113,0.30%,1100,0.13%,000020
2016-09-30,杨阳,个人,A股,706052,0.25%,新进,--,000020
2016-09-30,朱雄辉,个人,B股,667180,0.24%,40066,6.39%,000020
2016-09-30,钟佳潮,个人,A股,630000,0.22%,新进,--,000020
2017-09-30,柴长茂,个人,A股,21659397,1.47%,200,0.00%,000021
2017-09-30,周蓉,个人,A股,8000000,0.54%,181642,2.32%,000021
2017-09-30,郝双刚,个人,A股,3812001,0.26%,-72900,-1.88%,000021
2017-09-30,刘健楠,个人,A股,3000000,0.20%,-300000,-9.09%,000021
2017-06-30,柴长茂,个人,A股,21659197,1.47%,9079848,72.18%,000021
2017-06-30,周蓉,个人,A股,7818358,0.53%,新进,--,000021
2017-06-30,郝双刚,个人,A股,3884901,0.26%,557301,16.75%,000021
2017-06-30,刘健楠,个人,A股,3300000,0.22%,-90000,-2.65%,000021
2017-03-31,柴长茂,个人,A股,12579349,0.86%,8019349,175.86%,000021
2017-03-31,刘健楠,个人,A股,3390000,0.23%,新进,--,000021
2017-03-31,郝双刚,个人,A股,3327600,0.23%,不变,--,000021
2016-12-31,柴长茂,个人,A股,4560000,0.31%,新进,--,000021
2016-12-31,郝双刚,个人,A股,3327600,0.23%,新进,--,000021
2017-12-31,麦淑青,个人,A股,2238347,0.35%,新进,--,000022
2017-03-31,朱武广,个人,"A股,B股",1822024,0.28%,新进,--,000022
2016-09-30,屠文斌,个人,A股,2279700,1.64%,新进,--,000023
2016-09-30,魏力军,个人,A股,1865000,1.34%,229100,14.00%,000023
2016-09-30,肖小华,个人,A股,1555738,1.12%,新进,--,000023
2017-09-30,李光鑫,个人,B股,761161,0.35%,不变,--,000025
2017-09-30,翁政文,个人,B股,574528,0.26%,-5000,-0.86%,000025
2017-09-30,何杏,个人,B股,300100,0.14%,不变,--,000025
2017-09-30,黄楚云,个人,B股,266500,0.12%,不变,--,000025
2017-09-30,曾惠明,个人,B股,250000,0.11%,-20000,-7.41%,000025
2017-09-30,徐美女,个人,A股,237400,0.11%,新进,--,000025
2017-09-30,林凤芳,个人,B股,216933,0.10%,不变,--,000025
2017-06-30,李光鑫,个人,B股,761161,0.35%,不变,--,000025
2017-06-30,翁政文,个人,B股,579528,0.26%,500,0.09%,000025
2017-06-30,何杏,个人,B股,300100,0.14%,100,0.03%,000025
2017-06-30,曾惠明,个人,B股,270000,0.12%,不变,--,000025
2017-06-30,黄楚云,个人,B股,266500,0.12%,不变,--,000025
2017-06-30,林凤芳,个人,B股,216933,0.10%,新进,--,000025
2017-06-30,刘峻,个人,B股,195100,0.09%,新进,--,000025
2017-03-31,李光鑫,个人,B股,761161,0.35%,438603,135.98%,000025
2017-03-31,翁政文,个人,B股,579028,0.26%,不变,--,000025
2017-03-31,何杏,个人,B股,300000,0.14%,不变,--,000025
2017-03-31,曾惠明,个人,B股,270000,0.12%,不变,--,000025
2017-03-31,黄楚云,个人,B股,266500,0.12%,不变,--,000025
2017-03-31,张更蜀,个人,B股,185523,0.08%,不变,--,000025
2016-12-31,翁政文,个人,B股,579028,0.26%,不变,--,000025
2016-12-31,李光鑫,个人,B股,322558,0.15%,8400,2.67%,000025
2016-12-31,何杏,个人,B股,300000,0.14%,不变,--,000025
2016-12-31,曾惠明,个人,B股,270000,0.12%,不变,--,000025
2016-12-31,黄楚云,个人,B股,266500,0.12%,新进,--,000025
2016-12-31,张更蜀,个人,B股,185523,0.08%,新进,--,000025
2016-12-31,杨秋玲,个人,B股,168300,0.08%,新进,--,000025
2016-09-30,李柏清,个人,A股,640000,0.29%,新进,--,000025
2016-09-30,翁政文,个人,B股,579028,0.26%,-17272,-2.90%,000025
2016-09-30,李光鑫,个人,B股,314158,0.14%,新进,--,000025
2016-09-30,何杏,个人,B股,300000,0.14%,新进,--,000025
2016-09-30,曾惠明,个人,B股,270000,0.12%,-100000,-27.03%,000025
2016-09-30,左松宸,个人,A股,259635,0.12%,新进,--,000025
2017-12-31,杨祖贵,个人,A股,9163469,2.09%,1909400,26.32%,000026
2017-09-30,杨祖贵,个人,A股,7254069,1.65%,1352400,22.92%,000026
2017-06-30,杨祖贵,个人,A股,5901669,1.35%,新进,--,000026
2017-06-30,徐国亮,个人,A股,2565195,0.58%,20800,0.82%,000026
2017-03-31,徐国亮,个人,A股,2544395,0.58%,494300,24.11%,000026
2017-03-31,戴文,个人,A股,2009321,0.46%,-57300,-2.77%,000026
2016-12-31,戴文,个人,A股,2066621,0.53%,57300,2.85%,000026
2016-12-31,徐国亮,个人,A股,2050095,0.52%,新进,--,000026
2016-12-31,杨祖贵,个人,A股,1528400,0.39%,新进,--,000026
2017-09-30,朱武广,个人,A股,19013825,0.48%,540000,2.92%,000027
2017-06-30,朱武广,个人,A股,18473825,0.47%,不变,--,000027
2017-03-31,朱武广,个人,A股,18473825,0.47%,11324915,158.41%,000027
2016-12-31,朱武广,个人,A股,7148910,0.18%,不变,--,000027
2016-09-30,朱武广,个人,A股,7148910,0.18%,不变,--,000027
2017-09-30,卢志高,个人,A股,3246949,0.32%,不变,--,000029
2017-09-30,谭石庆,个人,A股,1286701,0.13%,不变,--,000029
2017-09-30,杨水莲,个人,A股,1273700,0.13%,不变,--,000029
2017-09-30,杨剑雄,个人,B股,1255750,0.12%,不变,--,000029
2017-09-30,彭伟,个人,A股,1129082,0.11%,不变,--,000029
2017-09-30,吴浩源,个人,B股,1109300,0.11%,不变,--,000029
2017-06-30,卢志高,个人,A股,3246949,0.32%,不变,--,000029
2017-06-30,谭石庆,个人,A股,1286701,0.13%,不变,--,000029
2017-06-30,杨水莲,个人,A股,1273700,0.13%,不变,--,000029
2017-06-30,杨剑雄,个人,B股,1255750,0.12%,不变,--,000029
2017-06-30,彭伟,个人,A股,1129082,0.11%,不变,--,000029
2017-06-30,吴浩源,个人,B股,1109300,0.11%,不变,--,000029
2017-03-31,卢志高,个人,A股,3246949,0.32%,不变,--,000029
2017-03-31,谭石庆,个人,A股,1286701,0.13%,不变,--,000029
2017-03-31,杨水莲,个人,A股,1273700,0.13%,不变,--,000029
2017-03-31,杨剑雄,个人,B股,1255750,0.12%,不变,--,000029
2017-03-31,彭伟,个人,A股,1129082,0.11%,不变,--,000029
2017-03-31,吴浩源,个人,B股,1109300,0.11%,不变,--,000029
2016-12-31,卢志高,个人,A股,3246949,0.32%,不变,--,000029
2016-12-31,谭石庆,个人,A股,1286701,0.13%,不变,--,000029
2016-12-31,杨水莲,个人,A股,1273700,0.13%,不变,--,000029
2016-12-31,杨剑雄,个人,B股,1255750,0.12%,不变,--,000029
2016-12-31,彭伟,个人,A股,1129082,0.11%,不变,--,000029
2016-12-31,吴浩源,个人,B股,1109300,0.11%,不变,--,000029
2016-09-30,卢志高,个人,A股,3246949,0.32%,-490000,-13.11%,000029
2016-09-30,谭石庆,个人,A股,1286701,0.13%,新进,--,000029
2016-09-30,杨水莲,个人,A股,1273700,0.13%,7700,0.61%,000029
2016-09-30,杨剑雄,个人,B股,1255750,0.12%,140000,12.55%,000029
2016-09-30,彭伟,个人,A股,1129082,0.11%,新进,--,000029
2016-09-30,吴浩源,个人,B股,1109300,0.11%,新进,--,000029
2017-09-30,叶凡,个人,A股,6682188,0.52%,不变,--,000030
2017-06-30,叶凡,个人,A股,6682188,0.52%,不变,--,000030
2017-03-31,叶凡,个人,A股,6682188,0.52%,新进,--,000030
2017-09-30,洪卓斌,个人,A股,16703554,0.92%,831100,5.24%,000031
2017-09-30,张忱业,个人,A股,6605502,0.36%,不变,--,000031
2017-09-30,吕春玲,个人,A股,4622500,0.25%,不变,--,000031
2017-06-30,洪卓斌,个人,A股,15872454,0.88%,新进,--,000031
2017-06-30,张忱业,个人,A股,6605502,0.36%,-136800,-2.03%,000031
2017-06-30,吕春玲,个人,A股,4622500,0.25%,1588700,52.37%,000031
2017-03-31,张忱业,个人,A股,6742302,0.37%,45000,0.67%,000031
2017-03-31,吴泽钦,个人,A股,4680000,0.26%,不变,--,000031
2017-03-31,吕春玲,个人,A股,3033800,0.17%,新进,--,000031
2017-03-31,李刚,个人,A股,2818642,0.16%,新进,--,000031
2017-03-31,刘永洪,个人,A股,2235976,0.12%,新进,--,000031
2016-12-31,张忱业,个人,A股,6697302,0.37%,94062,1.42%,000031
2016-12-31,吴泽钦,个人,A股,4680000,0.26%,不变,--,000031
2016-12-31,蔡炳洋,个人,A股,3150687,0.17%,-580413,-15.56%,000031
2016-09-30,张忱业,个人,A股,6603240,0.36%,2046677,44.92%,000031
2016-09-30,吴泽钦,个人,A股,4680000,0.26%,新进,--,000031
2016-09-30,蔡炳洋,个人,A股,3731100,0.21%,新进,--,000031
2017-09-30,吴安,个人,A股,3700000,1.32%,不变,--,000032
2017-09-30,吴绮绯,个人,A股,2547300,0.91%,不变,--,000032
2017-06-30,吴安,个人,A股,3700000,1.32%,不变,--,000032
2017-06-30,吴绮绯,个人,A股,2547300,0.91%,不变,--,000032
2017-03-31,吴安,个人,A股,3700000,1.32%,-1000000,-21.28%,000032
2017-03-31,吴绮绯,个人,A股,2547300,0.91%,137220,5.69%,000032
2016-12-31,吴安,个人,A股,4700000,1.68%,-264000,-5.32%,000032
2016-12-31,吴绮绯,个人,A股,2410080,0.86%,不变,--,000032
2016-12-31,李永红,个人,A股,1655400,0.59%,新进,--,000032
2016-09-30,吴安,个人,A股,4964000,1.78%,1000,0.02%,000032
2016-09-30,吴绮绯,个人,A股,2410080,0.86%,不变,--,000032
2017-09-30,郑礼灿,个人,A股,3394493,0.95%,不变,--,000034
2017-09-30,王维莉,个人,A股,2842034,0.79%,新进,--,000034
2017-09-30,江天,个人,A股,2787362,0.78%,-3212728,-53.54%,000034
2017-06-30,江天,个人,A股,6000090,1.68%,不变,--,000034
2017-06-30,郑礼灿,个人,A股,3394493,0.95%,不变,--,000034
2017-03-31,江天,个人,A股,6000090,1.68%,283172,4.95%,000034
2017-03-31,郑礼灿,个人,A股,3394493,0.95%,不变,--,000034
2016-12-31,江天,个人,A股,5716918,1.60%,新进,--,000034
2016-12-31,郑礼灿,个人,A股,3394493,0.95%,新进,--,000034
2017-09-30,严圣军,个人,A股,23475307,2.01%,不变,--,000035
2017-09-30,吴强,个人,A股,8327600,0.71%,1051800,14.46%,000035
2017-09-30,陈薇,个人,A股,6500000,0.56%,-300000,-4.41%,000035
2017-06-30,严圣军,个人,A股,23475307,2.01%,17475307,291.26%,000035
2017-06-30,吴强,个人,A股,7275800,0.62%,765332,11.76%,000035
2017-06-30,陈薇,个人,A股,6800000,0.58%,新进,--,000035
2017-03-31,吴强,个人,A股,6510468,0.80%,新进,--,000035
2017-03-31,严圣军,个人,A股,6000000,0.74%,不变,--,000035
2017-03-31,吴佳健,个人,A股,5119852,0.63%,新进,--,000035
2016-12-31,严圣军,个人,A股,6000000,0.74%,不变,--,000035
2016-12-31,吴玉龙,个人,A股,4898036,0.60%,新进,--,000035
2016-09-30,严圣军,个人,A股,6000000,0.74%,不变,--,000035
2017-09-30,于平,个人,A股,23136519,2.04%,11214000,94.06%,000036
2017-09-30,樊卫国,个人,A股,7596414,0.67%,不变,--,000036
2017-09-30,樊勇,个人,A股,5309270,0.47%,239604,4.73%,000036
2017-09-30,王志丰,个人,A股,4800000,0.42%,新进,--,000036
2017-09-30,陈英霞,个人,A股,3358700,0.30%,新进,--,000036
2017-06-30,于平,个人,A股,11922519,1.06%,1372447,13.01%,000036
2017-06-30,张新阳,个人,A股,8000013,0.71%,新进,--,000036
2017-06-30,樊卫国,个人,A股,7596414,0.67%,-307275,-3.89%,000036
2017-06-30,张勇乾,个人,A股,6000000,0.53%,150000,2.56%,000036
2017-06-30,汪丹辉,个人,A股,5710000,0.51%,不变,--,000036
2017-06-30,陈宝林,个人,A股,5522386,0.49%,506100,10.09%,000036
2017-06-30,樊勇,个人,A股,5069666,0.45%,-984016,-16.25%,000036
2017-03-31,于平,个人,A股,10550072,0.94%,1681619,18.96%,000036
2017-03-31,樊卫国,个人,A股,7903689,0.70%,47300,0.60%,000036
2017-03-31,樊勇,个人,A股,6053682,0.54%,新进,--,000036
2017-03-31,张勇乾,个人,A股,5850000,0.52%,350000,6.36%,000036
2017-03-31,汪丹辉,个人,A股,5710000,0.51%,310000,5.74%,000036
2017-03-31,陈宝林,个人,A股,5016286,0.44%,新进,--,000036
2017-03-31,王志丰,个人,A股,4618100,0.41%,368100,8.66%,000036
2016-12-31,于平,个人,A股,8868453,0.79%,新进,--,000036
2016-12-31,樊卫国,个人,A股,7856389,0.70%,-1801405,-18.65%,000036
2016-12-31,张勇乾,个人,A股,5500000,0.49%,400000,7.84%,000036
2016-12-31,汪丹辉,个人,A股,5400000,0.48%,445000,8.98%,000036
2016-12-31,王志丰,个人,A股,4250000,0.38%,280000,7.05%,000036
2016-09-30,樊卫国,个人,A股,9657794,0.86%,382900,4.13%,000036
2016-09-30,张勇乾,个人,A股,5100000,0.45%,新进,--,000036
2016-09-30,汪丹辉,个人,A股,4955000,0.44%,1195000,31.78%,000036
2016-09-30,郭奕龙,个人,A股,4345738,0.39%,不变,--,000036
2016-09-30,王志丰,个人,A股,3970000,0.35%,-10000,-0.25%,000036
2017-09-30,曾颖,个人,B股,6331656,1.05%,282586,4.67%,000037
2017-09-30,张和平,个人,"A股,B股",5025900,0.83%,不变,--,000037
2017-09-30,李宝琴,个人,"A股,B股",3994100,0.66%,435586,12.24%,000037
2017-06-30,曾颖,个人,B股,6049070,1.00%,不变,--,000037
2017-06-30,张和平,个人,"A股,B股",5025900,0.83%,-214400,-4.09%,000037
2017-06-30,李宝琴,个人,"A股,B股",3558514,0.59%,新进,--,000037
2017-03-31,曾颖,个人,B股,6049070,1.00%,不变,--,000037
2017-03-31,张和平,个人,"A股,B股",5240300,0.87%,-351900,-6.29%,000037
2017-03-31,刘芳,个人,"A股,B股",3017200,0.50%,新进,--,000037
2016-12-31,曾颖,个人,B股,6049070,1.00%,不变,--,000037
2016-12-31,张和平,个人,"A股,B股",5592200,0.93%,1240300,28.50%,000037
2016-09-30,曾颖,个人,B股,6049070,1.00%,不变,--,000037
2016-09-30,张和平,个人,A股,4351900,0.72%,不变,--,000037
2016-09-30,YAO XIU GUANG,个人,B股,3939000,0.65%,不变,--,000037
2017-09-30,曹林芳,个人,A股,8766306,11.11%,3287364,60.00%,000038
2017-09-30,罗承,个人,A股,1618413,2.05%,606905,60.00%,000038
2017-09-30,蒋阳俊,个人,A股,1352837,1.72%,507314,60.00%,000038
2017-09-30,李勇,个人,A股,493633,0.63%,185112,60.00%,000038
2017-09-30,曾建平,个人,A股,462633,0.59%,173487,60.00%,000038
2017-06-30,曹林芳,个人,A股,5478942,11.12%,不变,--,000038
2017-06-30,罗承,个人,A股,1011508,2.05%,新进,--,000038
2017-06-30,蒋阳俊,个人,A股,845523,1.72%,新进,--,000038
2017-06-30,李勇,个人,A股,308521,0.63%,不变,--,000038
2017-06-30,曾建平,个人,A股,289146,0.59%,不变,--,000038
2017-03-31,曹林芳,个人,A股,5478942,11.35%,新进,--,000038
2017-03-31,黄艳红,个人,A股,421087,0.87%,新进,--,000038
2017-03-31,龚莉蓉,个人,A股,356361,0.74%,新进,--,000038
2017-03-31,李勇,个人,A股,308521,0.64%,新进,--,000038
2017-03-31,曾建平,个人,A股,289146,0.60%,不变,--,000038
2016-12-31,曾建平,个人,A股,289146,0.77%,新进,--,000038
2016-12-31,牟骐,个人,A股,227557,0.60%,新进,--,000038
2016-12-31,任艳萍,个人,A股,215500,0.57%,新进,--,000038
2016-12-31,刘月明,个人,A股,210992,0.56%,新进,--,000038
2016-12-31,王宗涛,个人,A股,170000,0.45%,新进,--,000038
2016-12-31,王瑜,个人,A股,160000,0.42%,新进,--,000038
2016-09-30,杨晓,个人,A股,237684,0.63%,新进,--,000038
2016-09-30,张贵忠,个人,A股,215000,0.57%,新进,--,000038
2016-09-30,吴耀耀,个人,A股,195900,0.52%,新进,--,000038
2016-09-30,钱海波,个人,A股,183700,0.49%,新进,--,000038
2017-06-30,余朝霞,个人,A股,10251797,2.20%,不变,--,000040
2017-06-30,王洪阳,个人,A股,4929334,1.06%,-347600,-6.59%,000040
2017-06-30,贾铁斌,个人,A股,4300788,0.92%,新进,--,000040
2017-06-30,王芳,个人,A股,4206804,0.90%,-167200,-3.82%,000040
2017-03-31,余朝霞,个人,A股,10251797,2.21%,不变,--,000040
2017-03-31,王洪阳,个人,A股,5276934,1.14%,142087,2.77%,000040
2017-03-31,林敬波,个人,A股,5271393,1.13%,新进,--,000040
2017-03-31,王芳,个人,A股,4374004,0.94%,不变,--,000040
2016-12-31,余朝霞,个人,A股,10251797,2.21%,不变,--,000040
2016-12-31,胡谷秀,个人,A股,7352959,1.58%,不变,--,000040
2016-12-31,余特,个人,A股,5426326,1.17%,-2047924,-27.40%,000040
2016-12-31,王洪阳,个人,A股,5134847,1.11%,379200,7.97%,000040
2016-12-31,王芳,个人,A股,4374004,0.94%,不变,--,000040
2016-09-30,余朝霞,个人,A股,10251797,2.21%,不变,--,000040
2016-09-30,余特,个人,A股,7474250,1.61%,814363,12.23%,000040
2016-09-30,胡谷秀,个人,A股,7352959,1.58%,不变,--,000040
2016-09-30,王洪阳,个人,A股,4755647,1.02%,新进,--,000040
2016-09-30,王芳,个人,A股,4374004,0.94%,不变,--,000040
2017-09-30,高晖,个人,A股,4422000,0.66%,不变,--,000043
2017-09-30,王倩倩,个人,A股,3749300,0.56%,新进,--,000043
2017-09-30,王文霞,个人,A股,3330000,0.50%,不变,--,000043
2017-06-30,高晖,个人,A股,4422000,0.66%,101300,2.34%,000043
2017-06-30,鲁国芝,个人,A股,3600000,0.54%,-100000,-2.70%,000043
2017-06-30,王文霞,个人,A股,3330000,0.50%,不变,--,000043
2017-03-31,谢建强,个人,A股,5000000,0.75%,-1968200,-28.25%,000043
2017-03-31,高晖,个人,A股,4320700,0.65%,不变,--,000043
2017-03-31,鲁国芝,个人,A股,3700000,0.55%,新进,--,000043
2017-03-31,王文霞,个人,A股,3330000,0.50%,不变,--,000043
2017-03-31,张锋,个人,A股,2380000,0.36%,新进,--,000043
2016-12-31,谢建强,个人,A股,6968200,1.05%,新进,--,000043
2016-12-31,高晖,个人,A股,4320700,0.65%,不变,--,000043
2016-12-31,王文霞,个人,A股,3330000,0.50%,不变,--,000043
2016-12-31,闻唯,个人,A股,2910000,0.44%,新进,--,000043
2016-12-31,汪秀云,个人,A股,2870000,0.43%,新进,--,000043
2016-09-30,高晖,个人,A股,4320700,0.65%,不变,--,000043
2016-09-30,王文霞,个人,A股,3330000,0.50%,不变,--,000043
2016-09-30,朱明徽,个人,A股,2574950,0.39%,-284502,-9.95%,000043
2017-09-30,孙慧明,个人,B股,2396826,0.47%,-63400,-2.58%,000045
2017-09-30,刘东霞,个人,A股,1523900,0.30%,新进,--,000045
2017-09-30,苏运泽,个人,A股,1401500,0.28%,441500,45.99%,000045
2017-09-30,朱烨,个人,A股,1331945,0.26%,不变,--,000045
2017-09-30,王民仓,个人,A股,1280236,0.25%,-97000,-7.04%,000045
2017-09-30,洪帆,个人,A股,972400,0.19%,19800,2.08%,000045
2017-09-30,苏志芬,个人,A股,965200,0.19%,新进,--,000045
2017-06-30,孙慧明,个人,B股,2460226,0.49%,16700,0.68%,000045
2017-06-30,王民仓,个人,A股,1377236,0.27%,-10200,-0.74%,000045
2017-06-30,朱烨,个人,A股,1331945,0.26%,86800,6.97%,000045
2017-06-30,郑春刚,个人,A股,1260005,0.25%,新进,--,000045
2017-06-30,苏运泽,个人,A股,960000,0.19%,新进,--,000045
2017-06-30,洪帆,个人,A股,952600,0.19%,新进,--,000045
2017-03-31,孙慧明,个人,B股,2443526,0.48%,不变,--,000045
2017-03-31,王民仓,个人,A股,1387436,0.27%,新进,--,000045
2017-03-31,朱烨,个人,A股,1245145,0.25%,6036,0.49%,000045
2017-03-31,何志坚,个人,A股,1014425,0.20%,新进,--,000045
2016-12-31,孙慧明,个人,B股,2443526,0.48%,不变,--,000045
2016-12-31,盛庆霞,个人,A股,1442600,0.28%,新进,--,000045
2016-12-31,朱烨,个人,A股,1239109,0.24%,新进,--,000045
2016-09-30,何珠,个人,A股,3382468,0.67%,新进,--,000045
2016-09-30,孙慧明,个人,B股,2443526,0.48%,不变,--,000045
2016-09-30,夏可云,个人,A股,2412192,0.48%,不变,--,000045
2017-09-30,黄木顺,个人,A股,140080889,2.75%,180800,0.13%,000046
2017-06-30,黄木顺,个人,A股,139900089,2.75%,1633189,1.18%,000046
2017-03-31,黄木顺,个人,A股,138266900,2.71%,48026900,53.22%,000046
2016-12-31,黄木顺,个人,A股,90240000,1.98%,-8250000,-8.38%,000046
2016-12-31,原绍彬,个人,A股,38160000,0.84%,1009100,2.72%,000046
2016-09-30,黄木顺,个人,A股,98490000,2.16%,-5150000,-4.97%,000046
2016-09-30,原绍彬,个人,A股,37150900,0.82%,1050900,2.91%,000046
2017-09-30,王世忱,个人,A股,8844680,2.29%,不变,--,000048
2017-09-30,罗豫西,个人,A股,8478326,2.20%,不变,--,000048
2017-09-30,高春雷,个人,A股,8447694,2.19%,不变,--,000048
2017-06-30,王世忱,个人,A股,8844680,2.32%,20610,0.23%,000048
2017-06-30,罗豫西,个人,A股,8478326,2.22%,不变,--,000048
2017-06-30,高春雷,个人,A股,8447694,2.21%,185800,2.25%,000048
2017-03-31,王世忱,个人,A股,8824070,2.31%,不变,--,000048
2017-03-31,罗豫西,个人,A股,8478326,2.22%,不变,--,000048
2017-03-31,高春雷,个人,A股,8261894,2.16%,不变,--,000048
2016-12-31,王世忱,个人,A股,8824070,2.31%,不变,--,000048
2016-12-31,罗豫西,个人,A股,8478326,2.22%,不变,--,000048
2016-12-31,高春雷,个人,A股,8261894,2.16%,不变,--,000048
2016-09-30,王世忱,个人,A股,8824070,2.31%,50000,0.57%,000048
2016-09-30,罗豫西,个人,A股,8478326,2.22%,不变,--,000048
2016-09-30,高春雷,个人,A股,8261894,2.16%,不变,--,000048
2017-09-30,徐国义,个人,A股,9766705,0.70%,新进,--,000050
2016-12-31,王立波,个人,A股,6830000,0.72%,不变,--,000050
2017-09-30,周世坚,个人,A股,10000000,0.85%,-10000000,-50.00%,000055
2017-06-30,黄炬培,个人,A股,33501500,2.95%,6815068,25.54%,000055
2017-06-30,周世坚,个人,A股,20000000,1.76%,3786500,23.35%,000055
2017-03-31,黄炬培,个人,A股,26686432,3.53%,3600,0.01%,000055
2017-03-31,周世坚,个人,A股,16213500,2.14%,不变,--,000055
2016-12-31,黄炬培,个人,A股,26682832,3.53%,-189468,-0.71%,000055
2016-12-31,周世坚,个人,A股,16213500,2.14%,不变,--,000055
2016-09-30,黄炬培,个人,A股,26872300,3.55%,-196847,-0.73%,000055
2016-09-30,周世坚,个人,A股,16213500,2.14%,不变,--,000055
2017-09-30,锺志强,个人,B股,21576850,4.08%,新进,--,000056
2017-06-30,钟志强,个人,B股,21576850,4.08%,不变,--,000056
2017-03-31,钟志强,个人,B股,21576850,4.08%,不变,--,000056
2016-12-31,钟志强,个人,B股,21576850,4.08%,新进,--,000056
2016-09-30,鍾志強,个人,B股,21576850,4.08%,新进,--,000056
2017-09-30,刘国成,个人,B股,6891302,0.88%,61800,0.90%,000058
2017-09-30,张椒,个人,A股,4046989,0.52%,不变,--,000058
2017-09-30,刘国洪,个人,B股,3045839,0.39%,-129119,-4.07%,000058
2017-09-30,韩文霁,个人,A股,2980000,0.38%,新进,--,000058
2017-09-30,龚茜华,个人,B股,2940000,0.37%,不变,--,000058
2017-09-30,刘量,个人,A股,2206600,0.28%,新进,--,000058
2017-06-30,刘国成,个人,B股,6829502,0.87%,25000,0.37%,000058
2017-06-30,张椒,个人,A股,4046989,0.52%,不变,--,000058
2017-06-30,刘国洪,个人,B股,3174958,0.40%,-120700,-3.66%,000058
2017-06-30,龚茜华,个人,B股,2940000,0.37%,不变,--,000058
2017-06-30,曾颖,个人,B股,2300000,0.29%,不变,--,000058
2017-06-30,赵丹,个人,A股,1259263,0.16%,新进,--,000058
2017-03-31,刘国成,个人,B股,6804502,0.87%,不变,--,000058
2017-03-31,张椒,个人,A股,4046989,0.52%,不变,--,000058
2017-03-31,刘国洪,个人,B股,3295658,0.42%,-4900,-0.15%,000058
2017-03-31,龚茜华,个人,B股,2940000,0.37%,不变,--,000058
2017-03-31,曾颖,个人,B股,2300000,0.29%,不变,--,000058
2016-12-31,刘国成,个人,B股,6804502,0.87%,65500,0.97%,000058
2016-12-31,张椒,个人,A股,4046989,0.52%,不变,--,000058
2016-12-31,刘国洪,个人,B股,3300558,0.42%,300,0.01%,000058
2016-12-31,龚茜华,个人,B股,2940000,0.37%,不变,--,000058
2016-12-31,曾颖,个人,B股,2300000,0.29%,不变,--,000058
2016-12-31,吴桂香,个人,A股,1898801,0.24%,新进,--,000058
2016-09-30,刘国成,个人,B股,6739002,0.86%,不变,--,000058
2016-09-30,张椒,个人,A股,4046989,0.52%,新进,--,000058
2016-09-30,刘国洪,个人,B股,3300258,0.42%,-26600,-0.80%,000058
2016-09-30,龚茜华,个人,B股,2940000,0.37%,不变,--,000058
2016-09-30,曾颖,个人,B股,2300000,0.29%,-500000,-17.86%,000058
2016-09-30,魏洁仁,个人,B股,1412066,0.18%,新进,--,000058
2016-09-30,胡春婉,个人,B股,1385200,0.18%,不变,--,000058
2017-06-30,罗旭东,个人,A股,6726384,0.48%,新进,--,000059
2016-09-30,徐秀芝,个人,A股,9725560,0.69%,新进,--,000059
2017-09-30,曹素丽,个人,A股,13067121,0.59%,新进,--,000060
2016-12-31,王素芳,个人,A股,22787655,1.03%,新进,--,000060
2017-09-30,许育峰,个人,A股,17946220,1.06%,不变,--,000061
2017-06-30,许育峰,个人,A股,17946220,1.06%,不变,--,000061
2017-03-31,许育峰,个人,A股,17946220,1.06%,不变,--,000061
2016-12-31,许育峰,个人,A股,17946220,1.06%,不变,--,000061
2016-09-30,许育峰,个人,A股,17946220,1.06%,不变,--,000061
2017-09-30,刘建琪,个人,A股,2512186,0.38%,不变,--,000062
2017-09-30,易武,个人,A股,1827171,0.27%,不变,--,000062
2017-09-30,伍文彬,个人,A股,1512016,0.23%,新进,--,000062
2017-09-30,罗坚,个人,A股,1181496,0.18%,-1238467,-51.18%,000062
2017-09-30,张史莉,个人,A股,995600,0.15%,不变,--,000062
2017-06-30,刘建琪,个人,A股,2512186,0.38%,426400,20.44%,000062
2017-06-30,罗坚,个人,A股,2419963,0.36%,新进,--,000062
2017-06-30,易武,个人,A股,1827171,0.27%,不变,--,000062
2017-06-30,张史莉,个人,A股,995600,0.15%,2700,0.27%,000062
2017-06-30,姜承山,个人,A股,817216,0.12%,新进,--,000062
2017-03-31,刘建琪,个人,A股,2085786,0.31%,新进,--,000062
2017-03-31,易武,个人,A股,1827171,0.27%,不变,--,000062
2017-03-31,王为国,个人,A股,1606553,0.24%,-16000,-0.99%,000062
2017-03-31,徐仙山,个人,A股,1008625,0.15%,不变,--,000062
2017-03-31,张史莉,个人,A股,992900,0.15%,不变,--,000062
2017-03-31,黄波立,个人,A股,964300,0.14%,新进,--,000062
2016-12-31,易武,个人,A股,1827171,0.27%,不变,--,000062
2016-12-31,王为国,个人,A股,1622553,0.24%,新进,--,000062
2016-12-31,徐仙山,个人,A股,1008625,0.15%,新进,--,000062
2016-12-31,张史莉,个人,A股,992900,0.15%,不变,--,000062
2016-12-31,林建加,个人,A股,991900,0.15%,新进,--,000062
2016-09-30,易武,个人,A股,1827171,0.27%,不变,--,000062
2016-09-30,黄洪飞,个人,A股,1358585,0.20%,新进,--,000062
2016-09-30,王康,个人,A股,1100000,0.16%,-210000,-16.03%,000062
2016-09-30,张史莉,个人,A股,992900,0.15%,不变,--,000062
2016-09-30,谭百浚,个人,A股,700000,0.10%,新进,--,000062
2016-09-30,刘晓红,个人,A股,684400,0.10%,新进,--,000062
2017-09-30,孙惠刚,个人,A股,63956298,1.53%,-1842000,-2.80%,000063
2017-06-30,孙惠刚,个人,A股,65798298,1.57%,1169535,1.81%,000063
2017-03-31,孙惠刚,个人,A股,64628763,1.55%,新进,--,000063
2016-09-30,王文霞,个人,A股,2573355,0.96%,-2171245,-45.76%,000065
2017-09-30,陈黎春,个人,A股,30136590,1.21%,7708080,34.37%,000066
2017-06-30,陈黎春,个人,A股,22428510,0.90%,新进,--,000066
2017-06-30,路云龙,个人,A股,13190332,0.53%,654101,5.22%,000066
2017-03-31,刘好芬,个人,A股,15562213,0.62%,新进,--,000066
2017-03-31,路云龙,个人,A股,12536231,0.50%,新进,--,000066
2017-03-31,朱玉树,个人,A股,8802700,0.35%,6269547,247.50%,000066
2016-12-31,曹芳,个人,A股,4127680,0.31%,不变,--,000066
2016-12-31,钱小鹏,个人,A股,3936876,0.30%,-10700,-0.27%,000066
2016-12-31,朱玉树,个人,A股,2533153,0.19%,新进,--,000066
2016-12-31,杨朝礼,个人,A股,2487976,0.19%,不变,--,000066
2016-09-30,曹芳,个人,A股,4127680,0.31%,不变,--,000066
2016-09-30,钱小鹏,个人,A股,3947576,0.30%,900,0.02%,000066
2016-09-30,杨朝礼,个人,A股,2487976,0.19%,不变,--,000066
2016-09-30,钱瑛,个人,A股,2220200,0.17%,新进,--,000066
2017-09-30,陈进平,个人,A股,7239000,0.81%,71100,0.99%,000068
2017-09-30,翁新跃,个人,A股,6041317,0.67%,1424000,30.84%,000068
2017-09-30,曹增保,个人,A股,3063000,0.34%,不变,--,000068
2017-09-30,付云峰,个人,A股,3060159,0.34%,不变,--,000068
2017-09-30,孙雪娟,个人,A股,2821930,0.31%,新进,--,000068
2017-06-30,陈进平,个人,A股,7167900,0.80%,523200,7.87%,000068
2017-06-30,翁新跃,个人,A股,4617317,0.51%,445289,10.67%,000068
2017-06-30,曹增保,个人,A股,3063000,0.34%,不变,--,000068
2017-06-30,付云峰,个人,A股,3060159,0.34%,不变,--,000068
2017-06-30,徐洁明,个人,A股,2680302,0.30%,新进,--,000068
2017-03-31,陈进平,个人,A股,6644700,0.74%,2608200,64.62%,000068
2017-03-31,翁新跃,个人,A股,4172028,0.47%,不变,--,000068
2017-03-31,曹增保,个人,A股,3063000,0.34%,62800,2.09%,000068
2017-03-31,付云峰,个人,A股,3060159,0.34%,不变,--,000068
2017-03-31,高玫,个人,A股,2527007,0.28%,223000,9.68%,000068
2017-03-31,廖小英,个人,A股,2434200,0.27%,不变,--,000068
2016-12-31,翁新跃,个人,A股,4172028,0.47%,928900,28.64%,000068
2016-12-31,陈进平,个人,A股,4036500,0.45%,新进,--,000068
2016-12-31,付云峰,个人,A股,3060159,0.34%,不变,--,000068
2016-12-31,曹增保,个人,A股,3000200,0.33%,不变,--,000068
2016-12-31,廖小英,个人,A股,2434200,0.27%,新进,--,000068
2016-12-31,高玫,个人,A股,2304007,0.26%,新进,--,000068
2016-09-30,贾云琦,个人,A股,3531800,0.39%,-245200,-6.49%,000068
2016-09-30,王明霞,个人,A股,3419060,0.38%,294146,9.41%,000068
2016-09-30,翁新跃,个人,A股,3243128,0.36%,新进,--,000068
2016-09-30,付云峰,个人,A股,3060159,0.34%,2500,0.08%,000068
2016-09-30,曹增保,个人,A股,3000200,0.33%,不变,--,000068
2016-09-30,张志,个人,A股,2462500,0.27%,新进,--,000068
2017-09-30,王少熙,个人,A股,2688834,0.50%,新进,--,000070
2017-09-30,黄绮玉,个人,A股,2341816,0.43%,新进,--,000070
2017-09-30,李文泉,个人,A股,1630106,0.30%,新进,--,000070
2017-03-31,黄绮玉,个人,A股,1166508,0.43%,新进,--,000070
2017-03-31,张春玲,个人,A股,6839400,0.37%,新进,--,000078
2016-12-31,欧阳泉,个人,A股,5211500,0.28%,新进,--,000078
2016-12-31,蒋亚彤,个人,A股,4996069,0.27%,新进,--,000078
2017-09-30,郑丽雅,个人,A股,14440000,0.70%,不变,--,000089
2017-06-30,郑丽雅,个人,A股,14440000,0.70%,不变,--,000089
2017-03-31,郑丽雅,个人,A股,14440000,0.70%,不变,--,000089
2016-12-31,郑丽雅,个人,A股,14440000,0.70%,不变,--,000089
2016-09-30,郑丽雅,个人,A股,14440000,0.70%,不变,--,000089
2017-09-30,林伟建,个人,A股,4212200,0.54%,593249,16.39%,000090
2017-09-30,胡殿君,个人,A股,4095124,0.53%,-30000,-0.73%,000090
2017-09-30,蔡少雄,个人,A股,3700000,0.48%,新进,--,000090
2017-09-30,古素银,个人,A股,3610140,0.47%,新进,--,000090
2017-06-30,胡殿君,个人,A股,4125124,0.53%,-322993,-7.26%,000090
2017-06-30,林伟建,个人,A股,3618951,0.47%,新进,--,000090
2017-03-31,胡殿君,个人,A股,4448117,0.58%,新进,--,000090
2016-12-31,王志,个人,A股,3391768,0.44%,新进,--,000090
2016-09-30,郭奕龙,个人,A股,3764320,0.49%,新进,--,000090
2017-09-30,黄木标,个人,A股,9786223,1.92%,不变,--,000096
2017-09-30,连晓燕,个人,A股,7189761,1.41%,不变,--,000096
2017-09-30,方锡林,个人,A股,7181553,1.41%,不变,--,000096
2017-09-30,蔡世潮,个人,A股,6778134,1.33%,不变,--,000096
2017-06-30,黄木标,个人,A股,9786223,1.92%,不变,--,000096
2017-06-30,连晓燕,个人,A股,7189761,1.41%,不变,--,000096
2017-06-30,方锡林,个人,A股,7181553,1.41%,不变,--,000096
2017-06-30,蔡世潮,个人,A股,6778134,1.33%,不变,--,000096
2017-06-30,刘曼丽,个人,A股,5928153,1.16%,新进,--,000096
2017-03-31,黄木标,个人,A股,9786223,1.92%,不变,--,000096
2017-03-31,连晓燕,个人,A股,7189761,1.41%,427801,6.33%,000096
2017-03-31,方锡林,个人,A股,7181553,1.41%,不变,--,000096
2017-03-31,蔡世潮,个人,A股,6778134,1.33%,不变,--,000096
2016-12-31,黄木标,个人,A股,9786223,1.92%,不变,--,000096
2016-12-31,方锡林,个人,A股,7181553,1.41%,不变,--,000096
2016-12-31,蔡世潮,个人,A股,6778134,1.33%,不变,--,000096
2016-12-31,连晓燕,个人,A股,6761960,1.32%,247162,3.79%,000096
2016-12-31,陈伟钦,个人,A股,6569132,1.29%,不变,--,000096
2016-12-31,钟俊勇,个人,A股,5279970,1.03%,不变,--,000096
2016-12-31,黄柔,个人,A股,4695330,0.92%,10000,0.21%,000096
2016-12-31,黄美娟,个人,A股,4372251,0.86%,新进,--,000096
2016-09-30,黄木标,个人,A股,9786223,1.92%,新进,--,000096
2016-09-30,方锡林,个人,A股,7181553,1.41%,新进,--,000096
2016-09-30,蔡世潮,个人,A股,6778134,1.33%,新进,--,000096
2016-09-30,陈伟钦,个人,A股,6569132,1.29%,新进,--,000096
2016-09-30,连晓燕,个人,A股,6514798,1.28%,4194226,180.74%,000096
2016-09-30,钟俊勇,个人,A股,5279970,1.03%,新进,--,000096
2016-09-30,黄柔,个人,A股,4685330,0.92%,新进,--,000096
2016-09-30,陈君瑜,个人,A股,3612812,0.71%,新进,--,000096
2017-09-30,楼文胜,个人,A股,9851665,1.63%,不变,--,000099
2017-09-30,蒋进进,个人,A股,3293600,0.54%,不变,--,000099
2017-09-30,李涛,个人,A股,2688900,0.44%,不变,--,000099
2017-06-30,楼文胜,个人,A股,9851665,1.63%,200000,2.07%,000099
2017-06-30,蒋进进,个人,A股,3293600,0.54%,8800,0.27%,000099
2017-06-30,李涛,个人,A股,2688900,0.44%,新进,--,000099
2017-03-31,楼文胜,个人,A股,9651665,1.59%,3106310,47.46%,000099
2017-03-31,蒋进进,个人,A股,3284800,0.54%,-29200,-0.88%,000099
2016-12-31,楼文胜,个人,A股,6545355,1.08%,不变,--,000099
2016-12-31,蒋进进,个人,A股,3314000,0.55%,38700,1.18%,000099
2016-12-31,李涛,个人,A股,2199000,0.36%,新进,--,000099
2016-09-30,楼文胜,个人,A股,6545355,1.08%,新进,--,000099
2016-09-30,蒋进进,个人,A股,3275300,0.54%,748300,29.61%,000099
2017-09-30,李东生,个人,A股,159568422,1.77%,不变,--,000100
2017-06-30,李东生,个人,A股,159568422,1.77%,不变,--,000100
2017-03-31,李东生,个人,A股,159568422,1.77%,不变,--,000100
2016-12-31,李东生,个人,A股,159568422,1.77%,不变,--,000100
2016-09-30,李东生,个人,A股,159568422,1.77%,不变,--,000100
2017-09-30,林正刚,个人,A股,13663580,3.86%,不变,--,000150
2017-09-30,李岳雄,个人,A股,5846181,1.65%,1400000,31.49%,000150
2017-09-30,代妙琼,个人,A股,5399123,1.53%,新进,--,000150
2017-06-30,林正刚,个人,A股,13663580,3.86%,不变,--,000150
2017-06-30,李岳雄,个人,A股,4446181,1.26%,新进,--,000150
2017-06-30,林建新,个人,A股,2768862,0.78%,不变,--,000150
2017-03-31,林正刚,个人,A股,13663580,3.86%,不变,--,000150
2017-03-31,林建新,个人,A股,2768862,0.78%,新进,--,000150
2016-12-31,林正刚,个人,A股,13663580,3.86%,不变,--,000150
2016-09-30,林正刚,个人,A股,13663580,3.86%,新进,--,000150
2016-09-30,林建新,个人,A股,7598862,2.15%,新进,--,000150
2017-09-30,杜一,个人,A股,894500,0.34%,不变,--,000151
2017-09-30,王增章,个人,A股,861300,0.32%,不变,--,000151
2017-09-30,邱东,个人,A股,846300,0.32%,不变,--,000151
2017-09-30,付秀珍,个人,A股,728100,0.27%,新进,--,000151
2017-09-30,韩燕,个人,A股,676500,0.25%,96500,16.64%,000151
2017-09-30,温建南,个人,A股,609000,0.23%,新进,--,000151
2017-09-30,邢念健,个人,A股,572800,0.21%,新进,--,000151
2017-06-30,杜一,个人,A股,894500,0.34%,400,0.04%,000151
2017-06-30,王增章,个人,A股,861300,0.32%,不变,--,000151
2017-06-30,邱东,个人,A股,846300,0.32%,不变,--,000151
2017-06-30,孙淏添,个人,A股,820000,0.31%,-525490,-39.06%,000151
2017-06-30,孔兰惠,个人,A股,663835,0.25%,新进,--,000151
2017-06-30,朱斌,个人,A股,584200,0.22%,新进,--,000151
2017-06-30,韩燕,个人,A股,580000,0.22%,新进,--,000151
2017-06-30,谢发文,个人,A股,530353,0.20%,新进,--,000151
2017-03-31,杨永田,个人,A股,2526468,0.95%,新进,--,000151
2017-03-31,孙淏添,个人,A股,1345490,0.50%,新进,--,000151
2017-03-31,许福建,个人,A股,1120000,0.42%,新进,--,000151
2017-03-31,杜一,个人,A股,894100,0.34%,新进,--,000151
2017-03-31,王增章,个人,A股,861300,0.32%,不变,--,000151
2017-03-31,邱东,个人,A股,846300,0.32%,不变,--,000151
2017-03-31,许惠莲,个人,A股,770000,0.29%,新进,--,000151
2016-12-31,黄孝云,个人,A股,880200,0.33%,新进,--,000151
2016-12-31,王增章,个人,A股,861300,0.32%,不变,--,000151
2016-12-31,邱东,个人,A股,846300,0.32%,不变,--,000151
2016-12-31,魏忠义,个人,A股,813400,0.31%,不变,--,000151
2016-12-31,赵兴普,个人,A股,770000,0.29%,不变,--,000151
2016-12-31,韩燕,个人,A股,632500,0.24%,新进,--,000151
2016-12-31,刘国平,个人,A股,615530,0.23%,新进,--,000151
2016-09-30,刘晓军,个人,A股,1498000,0.56%,新进,--,000151
2016-09-30,王增章,个人,A股,861300,0.32%,不变,--,000151
2016-09-30,邱东,个人,A股,846300,0.32%,不变,--,000151
2016-09-30,魏忠义,个人,A股,813400,0.31%,新进,--,000151
2016-09-30,赵兴普,个人,A股,770000,0.29%,210000,37.50%,000151
2016-09-30,陈雪明,个人,A股,696482,0.26%,新进,--,000151
2016-09-30,周伟贤,个人,A股,675500,0.25%,新进,--,000151
2017-09-30,曾纪锋,个人,A股,2917300,0.94%,451252,18.30%,000153
2017-09-30,胡海洋,个人,A股,1400000,0.45%,不变,--,000153
2017-09-30,张淑敏,个人,A股,1350000,0.43%,新进,--,000153
2017-09-30,谭益洋,个人,A股,1158800,0.37%,新进,--,000153
2017-06-30,曾纪锋,个人,A股,2466048,0.79%,不变,--,000153
2017-06-30,胡海洋,个人,A股,1400000,0.45%,不变,--,000153
2017-03-31,曾纪锋,个人,A股,2466048,0.79%,不变,--,000153
2017-03-31,胡海洋,个人,A股,1400000,0.45%,不变,--,000153
2017-03-31,张淑敏,个人,A股,1200000,0.38%,不变,--,000153
2016-12-31,曾纪锋,个人,A股,2466048,0.79%,271222,12.36%,000153
2016-12-31,胡海洋,个人,A股,1400000,0.45%,新进,--,000153
2016-12-31,张淑敏,个人,A股,1200000,0.38%,不变,--,000153
2016-09-30,曾纪锋,个人,A股,2194826,0.70%,296526,15.62%,000153
2016-09-30,张淑敏,个人,A股,1200000,0.38%,新进,--,000153
2016-09-30,潘春高,个人,A股,1054800,0.34%,新进,--,000153
2016-09-30,齐瑞,个人,A股,1023408,0.33%,不变,--,000153
2016-09-30,蔡鹏,个人,A股,4723295,1.00%,不变,--,000155
2016-09-30,王彦峰,个人,A股,3121709,0.66%,不变,--,000155
2016-09-30,陈庆桃,个人,A股,2389101,0.51%,不变,--,000155
2016-09-30,刘世青,个人,A股,2182178,0.46%,不变,--,000155
2016-09-30,陈永升,个人,A股,1323105,0.28%,不变,--,000155
2016-09-30,陈飞,个人,A股,1239700,0.26%,不变,--,000155
2016-09-30,杜锦祥,个人,A股,1085800,0.23%,不变,--,000155
2016-09-30,徐彬,个人,A股,1049100,0.22%,不变,--,000155
2017-09-30,施玮,个人,A股,6075000,0.61%,不变,--,000156
2017-09-30,刘沿阳,个人,A股,4172031,0.42%,380800,10.04%,000156
2017-06-30,施玮,个人,A股,6075000,0.61%,不变,--,000156
2017-06-30,刘沿阳,个人,A股,3791231,0.38%,新进,--,000156
2017-03-31,施玮,个人,A股,6075000,0.61%,不变,--,000156
2017-03-31,方晓文,个人,A股,3447292,0.35%,新进,--,000156
2016-12-31,施玮,个人,A股,6075000,0.61%,-95000,-1.54%,000156
2016-09-30,施玮,个人,A股,6170000,0.62%,1438082,30.39%,000156
2017-09-30,俞振军,个人,A股,9956961,0.98%,6843761,219.83%,000158
2017-09-30,吴惠霞,个人,A股,9040132,0.89%,5145677,132.13%,000158
2017-09-30,周永生,个人,A股,8527686,0.84%,2931197,52.38%,000158
2017-09-30,徐俊,个人,A股,8248019,0.81%,新进,--,000158
2017-09-30,查振松,个人,A股,6651850,0.66%,2832050,74.14%,000158
2017-09-30,唐勇辉,个人,A股,5150927,0.51%,1673327,48.12%,000158
2017-09-30,郑东信,个人,A股,5050800,0.50%,935870,22.74%,000158
2017-06-30,周永生,个人,A股,5596489,0.72%,新进,--,000158
2017-06-30,郑东信,个人,A股,4114930,0.53%,新进,--,000158
2017-06-30,吴惠霞,个人,A股,3894455,0.50%,新进,--,000158
2017-06-30,查振松,个人,A股,3819800,0.49%,新进,--,000158
2017-06-30,唐勇辉,个人,A股,3477600,0.45%,新进,--,000158
2017-06-30,俞振军,个人,A股,3113200,0.40%,新进,--,000158
2017-03-31,李小明,个人,A股,21481031,2.81%,4017200,23.00%,000158
2017-03-31,庄慧萍,个人,A股,7165129,0.94%,不变,--,000158
2017-03-31,陆建明,个人,A股,4000000,0.52%,不变,--,000158
2017-03-31,金红,个人,A股,2770000,0.36%,新进,--,000158
2017-03-31,李莹,个人,A股,2247913,0.29%,不变,--,000158
2016-12-31,李小明,个人,A股,17463831,2.28%,12219170,232.98%,000158
2016-12-31,庄慧萍,个人,A股,7165129,0.94%,165129,2.36%,000158
2016-12-31,陆建明,个人,A股,4000000,0.52%,不变,--,000158
2016-12-31,李莹,个人,A股,2247913,0.29%,50000,2.27%,000158
2016-09-30,庄慧萍,个人,A股,7000000,0.91%,-1265300,-15.31%,000158
2016-09-30,李小明,个人,A股,5244661,0.68%,新进,--,000158
2016-09-30,陆建明,个人,A股,4000000,0.52%,221400,5.86%,000158
2016-09-30,李莹,个人,A股,2197913,0.29%,新进,--,000158
2017-09-30,袁建良,个人,A股,2170000,0.45%,70000,3.33%,000159
2017-09-30,陆继东,个人,A股,1699300,0.35%,22600,1.35%,000159
2017-09-30,刘长源,个人,A股,1370608,0.28%,14300,1.05%,000159
2017-09-30,徐冬水,个人,A股,1320000,0.27%,40000,3.13%,000159
2017-09-30,袁英,个人,A股,1162000,0.24%,不变,--,000159
2017-09-30,黄镇雄,个人,A股,1084800,0.23%,新进,--,000159
2017-09-30,许温华,个人,A股,1038600,0.22%,新进,--,000159
2017-09-30,郑伟,个人,A股,961800,0.20%,不变,--,000159
2017-06-30,芦艳丽,个人,A股,2428402,0.50%,1074900,79.42%,000159
2017-06-30,袁建良,个人,A股,2100000,0.44%,600000,40.00%,000159
2017-06-30,梁浩,个人,A股,1700000,0.35%,新进,--,000159
2017-06-30,陆继东,个人,A股,1676700,0.35%,70500,4.39%,000159
2017-06-30,刘长源,个人,A股,1356308,0.28%,新进,--,000159
2017-06-30,徐冬水,个人,A股,1280000,0.27%,10000,0.79%,000159
2017-06-30,袁英,个人,A股,1162000,0.24%,不变,--,000159
2017-06-30,郑伟,个人,A股,961800,0.20%,新进,--,000159
2017-03-31,陆继东,个人,A股,1606200,0.33%,新进,--,000159
2017-03-31,袁建良,个人,A股,1500000,0.31%,120000,8.70%,000159
2017-03-31,芦艳丽,个人,A股,1353502,0.28%,新进,--,000159
2017-03-31,徐冬水,个人,A股,1270000,0.26%,100000,8.55%,000159
2017-03-31,郑淑英,个人,A股,1220000,0.25%,新进,--,000159
2017-03-31,袁英,个人,A股,1162000,0.24%,新进,--,000159
2017-03-31,吴雨宸,个人,A股,1132000,0.24%,新进,--,000159
2016-12-31,袁建良,个人,A股,1380000,0.29%,新进,--,000159
2016-12-31,夏重阳,个人,A股,1368700,0.28%,-1061300,-43.67%,000159
2016-12-31,黄冬莲,个人,A股,1300000,0.27%,新进,--,000159
2016-12-31,李国辉,个人,A股,1262500,0.26%,10000,0.80%,000159
2016-12-31,徐冬水,个人,A股,1170000,0.24%,新进,--,000159
2016-09-30,夏重阳,个人,A股,2430000,0.51%,新进,--,000159
2016-09-30,李国辉,个人,A股,1252500,0.26%,新进,--,000159
2016-09-30,刘海燕,个人,A股,1192654,0.25%,新进,--,000159
2016-09-30,袁英,个人,A股,1162000,0.24%,新进,--,000159
2017-12-31,杨少荣,个人,A股,3241194,0.27%,新进,--,000301
2017-12-31,梁红,个人,A股,3006600,0.25%,新进,--,000301
2017-12-31,林祥坤,个人,A股,2408600,0.20%,新进,--,000301
2017-12-31,费有才,个人,A股,2300000,0.19%,新进,--,000301
2017-12-31,于英,个人,A股,2147000,0.18%,-93000,-4.15%,000301
2017-12-31,李晓雪,个人,A股,2062400,0.17%,新进,--,000301
2017-09-30,谢士臣,个人,A股,3955000,0.32%,不变,--,000301
2017-09-30,黄洁,个人,A股,2844700,0.23%,不变,--,000301
2017-09-30,于英,个人,A股,2240000,0.18%,不变,--,000301
2017-09-30,李军照,个人,A股,1957300,0.16%,不变,--,000301
2017-06-30,谢士臣,个人,A股,3955000,0.32%,不变,--,000301
2017-06-30,黄洁,个人,A股,2844700,0.23%,不变,--,000301
2017-06-30,于英,个人,A股,2240000,0.18%,不变,--,000301
2017-06-30,李军照,个人,A股,1957300,0.16%,不变,--,000301
2017-03-31,谢士臣,个人,A股,3955000,0.32%,新进,--,000301
2017-03-31,黄洁,个人,A股,2844700,0.23%,新进,--,000301
2017-03-31,于英,个人,A股,2240000,0.18%,-20000,-0.88%,000301
2017-03-31,李军照,个人,A股,1957300,0.16%,4300,0.22%,000301
2016-12-31,于英,个人,A股,2260000,0.19%,-208000,-8.43%,000301
2016-12-31,李军照,个人,A股,1953000,0.16%,新进,--,000301
2016-12-31,陈斯冰,个人,A股,1809000,0.15%,新进,--,000301
2016-12-31,严筠,个人,A股,1800000,0.15%,新进,--,000301
2017-09-30,黄健,个人,A股,87980000,1.39%,不变,--,000333
2017-09-30,袁利群,个人,A股,74365200,1.17%,379000,0.51%,000333
2017-09-30,付璇,个人,A股,68005680,1.07%,-8000,-0.01%,000333
2017-09-30,栗建伟,个人,A股,64144834,1.01%,不变,--,000333
2017-06-30,黄健,个人,A股,87980000,1.39%,-20000,-0.02%,000333
2017-06-30,袁利群,个人,A股,73986200,1.17%,-5929700,-7.42%,000333
2017-06-30,付璇,个人,A股,68013680,1.08%,新进,--,000333
2017-06-30,栗建伟,个人,A股,64144834,1.02%,-9832213,-13.29%,000333
2017-03-31,黄健,个人,A股,88000000,1.42%,不变,--,000333
2017-03-31,袁利群,个人,A股,79915900,1.29%,新进,--,000333
2017-03-31,何享健,个人,A股,77334548,1.25%,不变,--,000333
2017-03-31,栗建伟,个人,A股,73977047,1.20%,不变,--,000333
2016-12-31,黄健,个人,A股,88000000,1.42%,-22000000,-20.00%,000333
2016-12-31,何享健,个人,A股,77334548,1.25%,不变,--,000333
2016-12-31,栗建伟,个人,A股,73977047,1.20%,新进,--,000333
2016-09-30,黄健,个人,A股,110000000,1.79%,新进,--,000333
2016-09-30,何享健,个人,A股,77334548,1.26%,不变,--,000333
2016-09-30,黄晓明,个人,A股,77085099,1.26%,新进,--,000333
2016-12-31,洪泽君,个人,A股,47650000,1.52%,-2350000,-4.70%,000338
2016-09-30,洪泽君,个人,A股,50000000,1.60%,-2100000,-4.03%,000338
2017-06-30,董敏,个人,A股,3928800,0.29%,新进,--,000401
2017-03-31,程海庆,个人,A股,14400000,0.48%,不变,--,000402
2016-12-31,程海庆,个人,A股,14400000,0.48%,900000,6.67%,000402
2016-09-30,程海庆,个人,A股,13500000,0.45%,-1716235,-11.28%,000402
2017-09-30,费占军,个人,A股,3433000,1.71%,17300,0.51%,000403
2017-09-30,李欣立,个人,A股,2800000,1.39%,不变,--,000403
2017-09-30,张寿清,个人,A股,2000000,0.99%,不变,--,000403
2017-06-30,费占军,个人,A股,3415700,1.71%,486000,16.59%,000403
2017-06-30,李欣立,个人,A股,2800000,1.40%,不变,--,000403
2017-06-30,张寿清,个人,A股,2000000,1.00%,新进,--,000403
2017-06-30,程子春,个人,A股,1888880,0.94%,新进,--,000403
2017-03-31,费占军,个人,A股,2929700,1.56%,新进,--,000403
2017-03-31,李欣立,个人,A股,2800000,1.49%,不变,--,000403
2016-12-31,李欣立,个人,A股,2800000,1.49%,不变,--,000403
2016-12-31,张寿清,个人,A股,2000000,1.06%,不变,--,000403
2016-09-30,李欣立,个人,A股,2800000,1.49%,-451300,-13.88%,000403
2016-09-30,张寿清,个人,A股,2000000,1.06%,-2638800,-56.89%,000403
2017-09-30,王辉,个人,A股,5113282,0.74%,268071,5.53%,000404
2017-09-30,王芳,个人,A股,2849800,0.41%,新进,--,000404
2017-09-30,林细彬,个人,A股,2783975,0.40%,新进,--,000404
2017-06-30,赵美贞,个人,A股,5264750,0.76%,新进,--,000404
2017-06-30,王辉,个人,A股,4845211,0.70%,632560,15.02%,000404
2017-03-31,王辉,个人,A股,4212651,0.76%,94029,2.28%,000404
2016-12-31,王辉,个人,A股,4118622,0.74%,新进,--,000404
2016-12-31,赵美贞,个人,A股,3610000,0.65%,新进,--,000404
2017-09-30,孙冠杰,个人,A股,10600000,1.59%,不变,--,000407
2017-09-30,陶树宇,个人,A股,8053131,1.21%,209200,2.67%,000407
2017-09-30,苏枝桓,个人,A股,5023199,0.75%,310000,6.58%,000407
2017-09-30,曹立芳,个人,A股,3759322,0.56%,559900,17.50%,000407
2017-09-30,林秀伟,个人,A股,3500000,0.53%,800000,29.63%,000407
2017-06-30,孙冠杰,个人,A股,10600000,1.59%,新进,--,000407
2017-06-30,陶树宇,个人,A股,7843931,1.18%,新进,--,000407
2017-06-30,苏枝桓,个人,A股,4713199,0.71%,-16500,-0.35%,000407
2017-06-30,曹立芳,个人,A股,3199422,0.48%,442913,16.07%,000407
2017-06-30,王金永,个人,A股,2741390,0.41%,新进,--,000407
2017-06-30,林秀伟,个人,A股,2700000,0.41%,-1800000,-40.00%,000407
2017-06-30,李惠健,个人,A股,2669300,0.40%,新进,--,000407
2017-03-31,闫长勇,个人,A股,10675280,1.60%,不变,--,000407
2017-03-31,苏枝桓,个人,A股,4729699,0.71%,1648800,53.52%,000407
2017-03-31,林秀伟,个人,A股,4500000,0.68%,-1400000,-23.73%,000407
2017-03-31,曹立芳,个人,A股,2756509,0.41%,-267307,-8.84%,000407
2017-03-31,陈燕,个人,A股,2439200,0.37%,新进,--,000407
2016-12-31,闫长勇,个人,A股,10675280,1.60%,4270112,66.67%,000407
2016-12-31,林秀伟,个人,A股,5900000,0.89%,新进,--,000407
2016-12-31,孙长峰,个人,A股,4924630,0.74%,新进,--,000407
2016-12-31,刘宾,个人,A股,4781168,0.72%,新进,--,000407
2016-12-31,苏枝桓,个人,A股,3080899,0.46%,新进,--,000407
2016-12-31,曹立芳,个人,A股,3023816,0.45%,新进,--,000407
2016-12-31,王金永,个人,A股,2911828,0.44%,新进,--,000407
2016-09-30,闫长勇,个人,A股,6405168,0.97%,不变,--,000407
2017-09-30,李明,个人,A股,33996752,10.85%,新进,--,000408
2017-09-30,代小清,个人,A股,11277700,3.60%,-1002300,-8.16%,000408
2017-09-30,郑汉朝,个人,A股,7283374,2.32%,新进,--,000408
2017-09-30,李爽,个人,A股,5036900,1.61%,新进,--,000408
2017-09-30,倪再潮,个人,A股,4070000,1.30%,新进,--,000408
2017-06-30,代小清,个人,A股,12280000,4.87%,不变,--,000408
2017-06-30,王景峰,个人,A股,8620000,3.42%,-930000,-9.74%,000408
2017-06-30,王燕,个人,A股,3461435,1.37%,308400,9.78%,000408
2017-06-30,范军伟,个人,A股,2838410,1.13%,1055500,59.20%,000408
2017-06-30,谢亮华,个人,A股,2352700,0.93%,新进,--,000408
2017-06-30,陈虎,个人,A股,1845004,0.73%,74404,4.20%,000408
2017-06-30,肖云茂,个人,A股,1463001,0.58%,新进,--,000408
2017-06-30,谭伟,个人,A股,1395934,0.55%,新进,--,000408
2017-03-31,代小清,个人,A股,12280000,4.87%,不变,--,000408
2017-03-31,王景峰,个人,A股,9550000,3.79%,1462200,18.08%,000408
2017-03-31,王燕,个人,A股,3153035,1.25%,212100,7.21%,000408
2017-03-31,范军伟,个人,A股,1782910,0.71%,新进,--,000408
2017-03-31,陈虎,个人,A股,1770600,0.70%,45200,2.62%,000408
2017-03-31,刘丰志,个人,A股,1402746,0.56%,32400,2.36%,000408
2017-03-31,苏建玲,个人,A股,1293000,0.51%,-787200,-37.84%,000408
2017-03-31,王安全,个人,A股,1247001,0.49%,-3876241,-75.66%,000408
2017-03-31,罗飞,个人,A股,1095787,0.43%,不变,--,000408
2016-12-31,代小清,个人,A股,12280000,4.87%,7080000,136.15%,000408
2016-12-31,王景峰,个人,A股,8087800,3.21%,1017300,14.39%,000408
2016-12-31,王安全,个人,A股,5123242,2.03%,不变,--,000408
2016-12-31,王燕,个人,A股,2940935,1.17%,-174069,-5.59%,000408
2016-12-31,苏建玲,个人,A股,2080200,0.82%,新进,--,000408
2016-12-31,陈虎,个人,A股,1725400,0.68%,39400,2.34%,000408
2016-12-31,刘丰志,个人,A股,1370346,0.54%,5400,0.40%,000408
2016-12-31,马克兰,个人,A股,1217400,0.48%,新进,--,000408
2016-12-31,罗飞,个人,A股,1095787,0.43%,不变,--,000408
2016-09-30,王景峰,个人,A股,7070500,2.80%,-55200,-0.77%,000408
2016-09-30,代小清,个人,A股,5200000,2.06%,不变,--,000408
2016-09-30,王安全,个人,A股,5123242,2.03%,新进,--,000408
2016-09-30,王燕,个人,A股,3115004,1.23%,898200,40.52%,000408
2016-09-30,江喆,个人,A股,1748900,0.69%,-80100,-4.38%,000408
2016-09-30,陈虎,个人,A股,1686000,0.67%,97800,6.16%,000408
2016-09-30,刘丰志,个人,A股,1364946,0.54%,新进,--,000408
2016-09-30,罗飞,个人,A股,1095787,0.43%,不变,--,000408
2016-09-30,陈娴,个人,A股,1090000,0.43%,-174346,-13.79%,000408
2017-09-30,胡爱松,个人,A股,2887572,0.73%,新进,--,000409
2017-09-30,李婷婷,个人,A股,2065779,0.52%,不变,--,000409
2017-09-30,陈芹燕,个人,A股,2016740,0.51%,-540000,-21.12%,000409
2017-09-30,张伟明,个人,A股,1909910,0.48%,新进,--,000409
2017-06-30,陈芹燕,个人,A股,2556740,0.65%,新进,--,000409
2017-06-30,李婷婷,个人,A股,2065779,0.52%,新进,--,000409
2017-03-31,王永贵,个人,A股,2677700,0.75%,新进,--,000409
2017-03-31,王玉丽,个人,A股,2446000,0.68%,新进,--,000409
2016-12-31,李燕红,个人,A股,5000000,1.40%,新进,--,000409
2016-12-31,韩丞,个人,A股,2300000,0.64%,新进,--,000409
2016-12-31,陈惠芬,个人,A股,2237953,0.63%,新进,--,000409
2016-09-30,孙惠刚,个人,A股,2456956,0.69%,新进,--,000409
2016-09-30,陈桂珍,个人,A股,2118269,0.59%,不变,--,000409
2017-12-31,丁丽莎,个人,A股,3000049,0.41%,不变,--,000410
2017-12-31,钟振鑫,个人,A股,2300000,0.31%,不变,--,000410
2017-12-31,刘芳,个人,A股,1617700,0.22%,新进,--,000410
2017-12-31,吴金彪,个人,A股,1518701,0.21%,13600,0.90%,000410
2017-12-31,蔡少斌,个人,A股,1478700,0.20%,不变,--,000410
2017-12-31,蒋珍,个人,A股,1272400,0.17%,新进,--,000410
2017-12-31,马雨迪,个人,A股,1260000,0.17%,新进,--,000410
2017-09-30,丁丽莎,个人,A股,3000049,0.41%,新进,--,000410
2017-09-30,钟振鑫,个人,A股,2300000,0.31%,-2294000,-49.93%,000410
2017-09-30,叶晶,个人,A股,1921200,0.26%,155300,8.79%,000410
2017-09-30,陈海华,个人,A股,1666900,0.23%,新进,--,000410
2017-09-30,吴金彪,个人,A股,1505101,0.20%,不变,--,000410
2017-09-30,蔡少斌,个人,A股,1478700,0.20%,新进,--,000410
2017-06-30,钟振鑫,个人,A股,4594000,0.62%,不变,--,000410
2017-06-30,谢祥泉,个人,A股,1985971,0.27%,-435900,-18.00%,000410
2017-06-30,郑雪华,个人,A股,1835200,0.25%,-100000,-5.17%,000410
2017-06-30,林秀伟,个人,A股,1814050,0.25%,434050,31.45%,000410
2017-06-30,叶晶,个人,A股,1765900,0.24%,新进,--,000410
2017-06-30,蒋敖齐,个人,A股,1652900,0.22%,新进,--,000410
2017-06-30,吴金彪,个人,A股,1505101,0.20%,新进,--,000410
2017-03-31,丁宇辉,个人,A股,6230323,0.84%,2529300,68.34%,000410
2017-03-31,钟振鑫,个人,A股,4594000,0.62%,不变,--,000410
2017-03-31,廖晖,个人,A股,2500000,0.34%,不变,--,000410
2017-03-31,谢祥泉,个人,A股,2421871,0.33%,-95000,-3.77%,000410
2017-03-31,郑雪华,个人,A股,1935200,0.26%,130300,7.22%,000410
2017-03-31,沈巨峰,个人,A股,1490400,0.20%,新进,--,000410
2017-03-31,林秀伟,个人,A股,1380000,0.19%,新进,--,000410
2017-03-31,李闽鸿,个人,A股,1180169,0.16%,不变,--,000410
2017-03-31,潘照军,个人,A股,1053100,0.14%,-40000,-3.66%,000410
2016-12-31,程道兴,个人,A股,6600397,0.89%,新进,--,000410
2016-12-31,钟振鑫,个人,A股,4594000,0.62%,不变,--,000410
2016-12-31,丁宇辉,个人,A股,3701023,0.50%,579172,18.55%,000410
2016-12-31,谢祥泉,个人,A股,2516871,0.34%,200100,8.64%,000410
2016-12-31,廖晖,个人,A股,2500000,0.34%,不变,--,000410
2016-12-31,郑雪华,个人,A股,1804900,0.24%,154300,9.35%,000410
2016-12-31,李闽鸿,个人,A股,1180169,0.16%,不变,--,000410
2016-12-31,潘照军,个人,A股,1093100,0.15%,不变,--,000410
2017-06-30,谢贤团,个人,A股,17044700,0.53%,不变,--,000413
2017-06-30,沈巨峰,个人,A股,9474500,0.29%,新进,--,000413
2017-06-30,王勇,个人,A股,7780000,0.24%,新进,--,000413
2017-03-31,谢贤团,个人,A股,17044700,0.53%,-1000,-0.01%,000413
2016-12-31,顾斌,个人,A股,29597600,0.91%,新进,--,000413
2016-12-31,谢贤团,个人,A股,17045700,0.53%,857000,5.29%,000413
2016-09-30,谢贤团,个人,A股,16188700,0.61%,新进,--,000413
2016-09-30,王勇,个人,A股,7430000,0.28%,新进,--,000413
2017-09-30,鞠钱,个人,A股,8784700,1.65%,-173800,-1.94%,000416
2017-09-30,周建国,个人,A股,4929900,0.93%,不变,--,000416
2017-09-30,张玉敏,个人,A股,2800000,0.53%,不变,--,000416
2017-09-30,邱伟豪,个人,A股,2313185,0.44%,362700,18.60%,000416
2017-09-30,陈天虹,个人,A股,2200100,0.41%,429900,24.29%,000416
2017-09-30,尹玉臻,个人,A股,1860000,0.35%,新进,--,000416
2017-06-30,鞠钱,个人,A股,8958500,1.69%,367900,4.28%,000416
2017-06-30,周建国,个人,A股,4929900,0.93%,984900,24.97%,000416
2017-06-30,张玉敏,个人,A股,2800000,0.53%,不变,--,000416
2017-06-30,邱伟豪,个人,A股,1950485,0.37%,新进,--,000416
2017-06-30,彭钟慧,个人,A股,1843400,0.35%,不变,--,000416
2017-06-30,陈天虹,个人,A股,1770200,0.33%,新进,--,000416
2017-03-31,鞠钱,个人,A股,8590600,1.62%,821900,10.58%,000416
2017-03-31,周建国,个人,A股,3945000,0.74%,44955,1.15%,000416
2017-03-31,张玉敏,个人,A股,2800000,0.53%,-4180000,-59.89%,000416
2017-03-31,彭钟慧,个人,A股,1843400,0.35%,新进,--,000416
2017-03-31,张良敏,个人,A股,1767955,0.33%,新进,--,000416
2017-03-31,楼琛,个人,A股,1695900,0.32%,新进,--,000416
2016-12-31,鞠钱,个人,A股,7768700,1.46%,203300,2.69%,000416
2016-12-31,张玉敏,个人,A股,6980000,1.31%,新进,--,000416
2016-12-31,周建国,个人,A股,3900045,0.73%,新进,--,000416
2016-12-31,楼慕涵,个人,A股,3357500,0.63%,新进,--,000416
2016-12-31,关竹月,个人,A股,2603225,0.49%,新进,--,000416
2016-12-31,孙贤明,个人,A股,2558931,0.48%,不变,--,000416
2016-12-31,雷鸣,个人,A股,2123479,0.40%,不变,--,000416
2016-12-31,翟铖铖,个人,A股,2100000,0.40%,新进,--,000416
2016-09-30,鞠钱,个人,A股,7565400,1.42%,2411200,46.78%,000416
2016-09-30,李学锋,个人,A股,2635900,0.50%,-554500,-17.38%,000416
2016-09-30,孙贤明,个人,A股,2558931,0.48%,新进,--,000416
2016-09-30,王治申,个人,A股,2326900,0.44%,-273100,-10.50%,000416
2016-09-30,雷鸣,个人,A股,2123479,0.40%,新进,--,000416
2016-09-30,彭钟慧,个人,A股,1842900,0.35%,新进,--,000416
2017-09-30,昝圣达,个人,A股,17130000,2.20%,-260000,-1.50%,000417
2017-06-30,昝圣达,个人,A股,17390000,2.23%,不变,--,000417
2017-03-31,昝圣达,个人,A股,17390000,2.23%,-2460000,-12.39%,000417
2016-12-31,昝圣达,个人,A股,19850000,2.55%,-310000,-1.54%,000417
2016-12-31,彭朵花,个人,A股,3470000,0.45%,870000,33.46%,000417
2016-09-30,昝圣达,个人,A股,20160000,2.59%,-2988000,-12.91%,000417
2016-09-30,彭朵花,个人,A股,2600000,0.33%,新进,--,000417
2017-09-30,熊德宏,个人,A股,9220626,1.70%,163548,1.81%,000419
2017-09-30,朱小妹,个人,A股,5652367,1.04%,不变,--,000419
2017-09-30,李志鹤,个人,A股,5584544,1.03%,不变,--,000419
2017-09-30,李怡名,个人,A股,5032884,0.93%,不变,--,000419
2017-09-30,丁碧霞,个人,A股,4782107,0.88%,不变,--,000419
2017-09-30,陶美英,个人,A股,4363078,0.80%,506198,13.12%,000419
2017-06-30,熊德宏,个人,A股,9057078,1.67%,76556,0.85%,000419
2017-06-30,朱小妹,个人,A股,5652367,1.04%,不变,--,000419
2017-06-30,李志鹤,个人,A股,5584544,1.03%,不变,--,000419
2017-06-30,李怡名,个人,A股,5032884,0.93%,不变,--,000419
2017-06-30,丁碧霞,个人,A股,4782107,0.88%,不变,--,000419
2017-06-30,陶美英,个人,A股,3856880,0.71%,不变,--,000419
2017-03-31,熊德宏,个人,A股,8980522,1.65%,-261527,-2.83%,000419
2017-03-31,朱小妹,个人,A股,5652367,1.04%,1223147,27.62%,000419
2017-03-31,李志鹤,个人,A股,5584544,1.03%,876959,18.63%,000419
2017-03-31,李怡名,个人,A股,5032884,0.93%,-48300,-0.95%,000419
2017-03-31,丁碧霞,个人,A股,4782107,0.88%,500000,11.68%,000419
2017-03-31,陶美英,个人,A股,3856880,0.71%,124300,3.33%,000419
2016-12-31,熊德宏,个人,A股,9242049,1.70%,新进,--,000419
2016-12-31,李怡名,个人,A股,5081184,0.94%,3900,0.08%,000419
2016-12-31,李志鹤,个人,A股,4707585,0.87%,不变,--,000419
2016-12-31,朱小妹,个人,A股,4429220,0.82%,不变,--,000419
2016-12-31,丁碧霞,个人,A股,4282107,0.79%,不变,--,000419
2016-12-31,陶美英,个人,A股,3732580,0.69%,新进,--,000419
2016-09-30,李怡名,个人,A股,5077284,0.93%,2212100,77.21%,000419
2016-09-30,李志鹤,个人,A股,4707585,0.87%,不变,--,000419
2016-09-30,朱小妹,个人,A股,4429220,0.82%,不变,--,000419
2016-09-30,丁碧霞,个人,A股,4282107,0.79%,不变,--,000419
2016-09-30,李裕婷,个人,A股,2824203,0.52%,不变,--,000419
2016-09-30,杨林发,个人,A股,2291500,0.42%,新进,--,000419
2017-09-30,李荣,个人,A股,7863300,0.80%,-8200,-0.10%,000420
2017-09-30,封艳,个人,A股,4563300,0.46%,252300,5.85%,000420
2017-09-30,卞勍,个人,A股,4216385,0.43%,新进,--,000420
2017-09-30,杨茁,个人,A股,3637000,0.37%,不变,--,000420
2017-09-30,李恩女,个人,A股,3626000,0.37%,不变,--,000420
2017-06-30,李荣,个人,A股,7871500,0.80%,-2900,-0.04%,000420
2017-06-30,封艳,个人,A股,4311000,0.44%,9600,0.22%,000420
2017-06-30,杨茁,个人,A股,3637000,0.37%,不变,--,000420
2017-06-30,李恩女,个人,A股,3626000,0.37%,不变,--,000420
2017-06-30,李婷婷,个人,A股,3564866,0.36%,不变,--,000420
2017-03-31,李荣,个人,A股,7874400,1.24%,-62900,-0.79%,000420
2017-03-31,闫丽芳,个人,A股,6879505,1.08%,新进,--,000420
2017-03-31,刘永忠,个人,A股,4844300,0.76%,新进,--,000420
2017-03-31,封艳,个人,A股,4301400,0.68%,161400,3.90%,000420
2017-03-31,杨茁,个人,A股,3637000,0.57%,不变,--,000420
2017-03-31,李恩女,个人,A股,3626000,0.57%,-76000,-2.05%,000420
2017-03-31,李婷婷,个人,A股,3564866,0.56%,3700,0.10%,000420
2017-03-31,张青,个人,A股,3264100,0.51%,-8303658,-71.78%,000420
2017-03-31,陆欧,个人,A股,3111600,0.49%,不变,--,000420
2016-12-31,张青,个人,A股,11567758,1.82%,新进,--,000420
2016-12-31,李荣,个人,A股,7937300,1.25%,4022800,102.77%,000420
2016-12-31,封艳,个人,A股,4140000,0.65%,新进,--,000420
2016-12-31,李恩女,个人,A股,3702000,0.58%,新进,--,000420
2016-12-31,杨茁,个人,A股,3637000,0.57%,新进,--,000420
2016-12-31,李婷婷,个人,A股,3561166,0.56%,新进,--,000420
2016-12-31,陆欧,个人,A股,3111600,0.49%,新进,--,000420
2016-12-31,郑碧英,个人,A股,3101918,0.49%,新进,--,000420
2017-09-30,唐慧康,个人,A股,4649827,1.19%,-33218,-0.71%,000421
2017-09-30,胡志平,个人,A股,4486000,1.14%,543400,13.78%,000421
2017-09-30,倪思礼,个人,A股,2139400,0.55%,新进,--,000421
2017-06-30,唐慧康,个人,A股,4683045,1.19%,-134093,-2.78%,000421
2017-06-30,胡志平,个人,A股,3942600,1.00%,-717100,-15.39%,000421
2017-03-31,唐慧康,个人,A股,4817138,1.23%,新进,--,000421
2017-03-31,胡志平,个人,A股,4659700,1.19%,-402900,-7.96%,000421
2016-12-31,胡志平,个人,A股,5062600,1.29%,1157100,29.63%,000421
2016-09-30,胡志平,个人,A股,3905500,1.00%,新进,--,000421
2017-09-30,王霞,个人,A股,5043625,0.56%,-33778,-0.67%,000422
2017-09-30,胡茂响,个人,A股,4153500,0.46%,新进,--,000422
2017-09-30,俞峰,个人,A股,3591899,0.40%,新进,--,000422
2017-09-30,谷耀山,个人,A股,3021766,0.34%,新进,--,000422
2017-06-30,吴爱民,个人,A股,5237495,0.58%,3100,0.06%,000422
2017-06-30,王霞,个人,A股,5077403,0.57%,-315000,-5.84%,000422
2017-03-31,王霞,个人,A股,5392403,0.60%,新进,--,000422
2017-03-31,吴爱民,个人,A股,5234395,0.58%,新进,--,000422
2017-03-31,王少文,个人,A股,4088024,0.46%,新进,--,000422
2017-03-31,吴铭棠,个人,A股,4021415,0.45%,新进,--,000422
2017-03-31,钟亚龙,个人,A股,4950000,0.76%,新进,--,000423
2017-03-31,王祥福,个人,A股,3771400,0.33%,新进,--,000426
2017-09-30,张朝阳,个人,A股,5284700,0.74%,230000,4.55%,000428
2017-09-30,赵立巍,个人,A股,2605000,0.36%,不变,--,000428
2017-09-30,刁守伟,个人,A股,2514795,0.35%,不变,--,000428
2017-09-30,李峻,个人,A股,2143961,0.30%,不变,--,000428
2017-09-30,魏学利,个人,A股,2110060,0.29%,不变,--,000428
2017-09-30,王燕,个人,A股,2100000,0.29%,新进,--,000428
2017-09-30,陈琦,个人,A股,1978952,0.28%,新进,--,000428
2017-06-30,张朝阳,个人,A股,5054700,0.70%,46900,0.94%,000428
2017-06-30,赵立巍,个人,A股,2605000,0.36%,不变,--,000428
2017-06-30,刁守伟,个人,A股,2514795,0.35%,1420,0.06%,000428
2017-06-30,李峻,个人,A股,2143961,0.30%,新进,--,000428
2017-06-30,魏学利,个人,A股,2110060,0.29%,新进,--,000428
2017-06-30,贾云鹏,个人,A股,1797120,0.25%,新进,--,000428
2017-03-31,张朝阳,个人,A股,5007800,0.70%,707800,16.46%,000428
2017-03-31,赵立巍,个人,A股,2605000,0.36%,新进,--,000428
2017-03-31,刁守伟,个人,A股,2513375,0.35%,新进,--,000428
2016-12-31,张朝阳,个人,A股,4300000,0.60%,889992,26.10%,000428
2016-09-30,张朝阳,个人,A股,3410008,0.47%,新进,--,000428
2017-09-30,冯梧初,个人,"A股,B股",21438522,2.62%,-286275,-1.32%,000429
2017-06-30,冯梧初,个人,"A股,B股",21724797,2.66%,1339832,6.57%,000429
2017-03-31,冯梧初,个人,"A股,B股",20384965,2.49%,-1551317,-7.07%,000429
2016-12-31,冯梧初,个人,"A股,B股",21936282,2.68%,-202915,-0.92%,000429
2016-09-30,冯梧初,个人,"A股,B股",22139197,2.71%,1200,0.01%,000429
2016-09-30,李卓,个人,A股,6417090,0.79%,-3041300,-32.15%,000429
2017-09-30,刘红波,个人,A股,1879505,0.90%,50000,2.73%,000430
2017-09-30,苏文强,个人,A股,1726200,0.83%,-130200,-7.01%,000430
2017-09-30,张恒毓,个人,A股,1353200,0.65%,不变,--,000430
2017-06-30,苏文强,个人,A股,1856400,0.89%,新进,--,000430
2017-06-30,刘红波,个人,A股,1829505,0.88%,100000,5.78%,000430
2017-06-30,张恒毓,个人,A股,1353200,0.65%,3200,0.24%,000430
2017-03-31,刘红波,个人,A股,1729505,0.83%,-102295,-5.58%,000430
2017-03-31,张恒毓,个人,A股,1350000,0.65%,新进,--,000430
2017-03-31,朱禹霖,个人,A股,1330000,0.64%,新进,--,000430
2017-03-31,高博,个人,A股,1299865,0.62%,新进,--,000430
2016-12-31,刘红波,个人,A股,1831800,0.88%,131800,7.75%,000430
2016-09-30,郑宏俊,个人,A股,2690000,1.29%,新进,--,000430
2016-09-30,刘红波,个人,A股,1700000,0.81%,166400,10.85%,000430
2017-09-30,金幸,个人,B股,7630100,0.40%,220000,2.97%,000488
2017-06-30,金幸,个人,B股,7410100,0.38%,-398200,-5.10%,000488
2017-06-30,陈洪国,个人,A股,6434527,0.33%,新进,--,000488
2017-03-31,金幸,个人,B股,7808300,0.40%,46537,0.60%,000488
2016-12-31,金幸,个人,B股,7761763,0.40%,新进,--,000488
2016-12-31,陈洪国,个人,A股,6434527,0.33%,新进,--,000488
2017-06-30,王福运,个人,A股,2800000,0.79%,210000,8.11%,000498
2017-03-31,王福运,个人,A股,2590000,0.73%,新进,--,000498
2016-09-30,潘玉根,个人,A股,2946000,0.83%,新进,--,000498
2017-09-30,黄美珠,个人,A股,11359415,1.70%,473177,4.35%,000501
2017-06-30,黄美珠,个人,A股,10886238,1.63%,新进,--,000501
2016-12-31,林贤钊,个人,A股,6652084,1.31%,-4378435,-39.69%,000501
2016-09-30,林贤钊,个人,A股,11030519,2.17%,不变,--,000501
2017-09-30,纪正祥,个人,A股,1389500,0.76%,新进,--,000502
2017-09-30,毛贵良,个人,A股,1195300,0.65%,不变,--,000502
2017-09-30,潘光明,个人,A股,949163,0.52%,27700,3.01%,000502
2017-09-30,王昕,个人,A股,900000,0.49%,新进,--,000502
2017-06-30,毛贵良,个人,A股,1195300,0.65%,不变,--,000502
2017-06-30,钟金杏,个人,A股,1179111,0.64%,-326189,-21.67%,000502
2017-06-30,潘光明,个人,A股,921463,0.50%,新进,--,000502
2017-03-31,钟金杏,个人,A股,1505300,0.82%,119500,8.62%,000502
2017-03-31,施得和,个人,A股,1428333,0.78%,新进,--,000502
2017-03-31,毛贵良,个人,A股,1195300,0.65%,新进,--,000502
2017-03-31,施敏,个人,A股,763710,0.42%,新进,--,000502
2016-12-31,赵建平,个人,A股,3200000,1.75%,500000,18.52%,000502
2016-12-31,杜小萍,个人,A股,1436513,0.78%,91700,6.82%,000502
2016-12-31,钟金杏,个人,A股,1385800,0.76%,新进,--,000502
2016-09-30,赵建平,个人,A股,2700000,1.47%,不变,--,000502
2016-09-30,李健新,个人,A股,2576884,1.41%,新进,--,000502
2016-09-30,杜小萍,个人,A股,1344813,0.73%,新进,--,000502
2016-09-30,殷阿四,个人,A股,1306938,0.71%,新进,--,000502
2017-09-30,刘荣赠,个人,A股,7612695,0.85%,不变,--,000503
2017-09-30,汪铭泉,个人,A股,6650000,0.74%,不变,--,000503
2017-09-30,张毅,个人,A股,6078178,0.68%,不变,--,000503
2017-09-30,潘丽,个人,A股,5797708,0.65%,不变,--,000503
2017-09-30,孙志英,个人,A股,4544000,0.51%,不变,--,000503
2017-06-30,刘荣赠,个人,A股,7612695,0.85%,240000,3.26%,000503
2017-06-30,汪铭泉,个人,A股,6650000,0.74%,新进,--,000503
2017-06-30,张毅,个人,A股,6078178,0.68%,不变,--,000503
2017-06-30,潘丽,个人,A股,5797708,0.65%,-33892,-0.58%,000503
2017-06-30,孙志英,个人,A股,4544000,0.51%,-40000,-0.87%,000503
2017-03-31,刘荣赠,个人,A股,7372695,0.82%,120038,1.66%,000503
2017-03-31,张毅,个人,A股,6078178,0.68%,不变,--,000503
2017-03-31,潘丽,个人,A股,5831600,0.65%,新进,--,000503
2017-03-31,陈积泽,个人,A股,5318088,0.59%,-1686012,-24.07%,000503
2017-03-31,孙志英,个人,A股,4584000,0.51%,新进,--,000503
2016-12-31,刘荣赠,个人,A股,7252657,0.81%,新进,--,000503
2016-12-31,钱克佳,个人,A股,7178457,0.80%,-955107,-11.74%,000503
2016-12-31,陈积泽,个人,A股,7004100,0.78%,-684418,-8.90%,000503
2016-12-31,张毅,个人,A股,6078178,0.68%,新进,--,000503
2016-09-30,钱克佳,个人,A股,8133564,0.90%,593564,7.87%,000503
2016-09-30,陈积泽,个人,A股,7688518,0.86%,-893225,-10.41%,000503
2017-09-30,吕益先,个人,A股,7995900,2.57%,1000,0.01%,000504
2017-09-30,邵雄,个人,A股,5135128,1.65%,532828,11.58%,000504
2017-09-30,白效洪,个人,A股,3392190,1.09%,不变,--,000504
2017-09-30,李宝珍,个人,A股,2595000,0.84%,-387700,-13.00%,000504
2017-06-30,吕益先,个人,A股,7994900,2.57%,-1500,-0.02%,000504
2017-06-30,邵雄,个人,A股,4602300,1.48%,804200,21.17%,000504
2017-06-30,白效洪,个人,A股,3392190,1.09%,新进,--,000504
2017-06-30,李宝珍,个人,A股,2982700,0.96%,新进,--,000504
2017-03-31,吕益先,个人,A股,7996400,2.57%,新进,--,000504
2017-03-31,陈开军,个人,A股,5449130,1.75%,不变,--,000504
2017-03-31,邵雄,个人,A股,3798100,1.22%,264100,7.47%,000504
2017-03-31,徐晓,个人,A股,3117925,1.00%,54400,1.78%,000504
2017-03-31,张进宝,个人,A股,2771935,0.89%,新进,--,000504
2016-12-31,陈开军,个人,A股,5449130,1.75%,不变,--,000504
2016-12-31,邵雄,个人,A股,3534000,1.14%,-553800,-13.55%,000504
2016-12-31,徐晓,个人,A股,3063525,0.99%,新进,--,000504
2016-09-30,陈开军,个人,A股,5449130,1.75%,不变,--,000504
2016-09-30,邵雄,个人,A股,4087800,1.32%,-1378900,-25.22%,000504
2017-09-30,LI SHERYN ZHAN MING,个人,B股,21282800,5.00%,373400,1.79%,000505
2017-09-30,梅建英,个人,A股,2583803,0.61%,不变,--,000505
2017-09-30,姚丽媛,个人,B股,1950000,0.46%,不变,--,000505
2017-09-30,张晓霞,个人,B股,1949250,0.46%,不变,--,000505
2017-09-30,王小星,个人,A股,1836500,0.43%,不变,--,000505
2017-09-30,陈藕琴,个人,A股,1652679,0.39%,新进,--,000505
2017-09-30,王道,个人,A股,1633300,0.38%,新进,--,000505
2017-09-30,钟懿,个人,A股,1604283,0.38%,新进,--,000505
2017-09-30,许震,个人,A股,1595000,0.37%,-830500,-34.24%,000505
2017-06-30,LI SHERYN ZHAN MING,个人,B股,20909400,4.91%,262300,1.27%,000505
2017-06-30,董学亮,个人,A股,2844041,0.67%,新进,--,000505
2017-06-30,梅建英,个人,A股,2583803,0.61%,新进,--,000505
2017-06-30,许震,个人,A股,2425500,0.57%,216300,9.79%,000505
2017-06-30,杨淑玲,个人,A股,2000000,0.47%,-458000,-18.63%,000505
2017-06-30,姚丽媛,个人,B股,1950000,0.46%,不变,--,000505
2017-06-30,张晓霞,个人,B股,1949250,0.46%,不变,--,000505
2017-06-30,王小星,个人,A股,1836500,0.43%,新进,--,000505
2017-06-30,焦清玲,个人,A股,1770759,0.42%,新进,--,000505
2017-03-31,LI SHERYN ZHAN MING,个人,B股,20647100,4.85%,8267100,66.78%,000505
2017-03-31,杨淑玲,个人,A股,2458000,0.58%,8900,0.36%,000505
2017-03-31,许震,个人,A股,2209200,0.52%,-268800,-10.85%,000505
2017-03-31,高彪,个人,A股,2120000,0.50%,新进,--,000505
2017-03-31,姚丽媛,个人,B股,1950000,0.46%,-3100,-0.16%,000505
2017-03-31,张晓霞,个人,B股,1949250,0.46%,不变,--,000505
2017-03-31,钟懿,个人,A股,1640083,0.39%,新进,--,000505
2017-03-31,王道,个人,A股,1595900,0.38%,新进,--,000505
2016-12-31,LI SHERYN ZHAN MING,个人,B股,12380000,2.91%,新进,--,000505
2016-12-31,LI LEON ZHAN WEI ,个人,B股,8455000,1.99%,新进,--,000505
2016-12-31,董学亮,个人,A股,2560400,0.60%,新进,--,000505
2016-12-31,许震,个人,A股,2478000,0.58%,15700,0.64%,000505
2016-12-31,杨淑玲,个人,A股,2449100,0.58%,新进,--,000505
2016-12-31,姚丽媛,个人,B股,1953100,0.46%,-52500,-2.62%,000505
2016-12-31,张晓霞,个人,B股,1949250,0.46%,不变,--,000505
2016-09-30,LI LEON ZHAN WEI,个人,B股,11215043,2.64%,不变,--,000505
2016-09-30,YAO XIU GUANG,个人,B股,9850128,2.32%,不变,--,000505
2016-09-30,陈华南,个人,A股,2802117,0.66%,不变,--,000505
2016-09-30,许震,个人,A股,2462300,0.58%,不变,--,000505
2016-09-30,姚丽媛,个人,B股,2005600,0.47%,不变,--,000505
2016-09-30,张晓霞,个人,B股,1949250,0.46%,不变,--,000505
2017-09-30,郑强,个人,A股,65869034,7.09%,不变,--,000506
2017-06-30,郑强,个人,A股,65869034,7.09%,不变,--,000506
2017-03-31,郑强,个人,A股,65869034,7.09%,-139352400,-67.90%,000506
2016-12-31,郑强,个人,A股,205221434,22.11%,不变,--,000506
2016-12-31,卢粉,个人,A股,5700040,0.61%,不变,--,000506
2016-12-31,李伟,个人,A股,5626157,0.61%,新进,--,000506
2016-12-31,孙丽,个人,A股,5216732,0.56%,新进,--,000506
2016-12-31,利青,个人,A股,5061746,0.55%,新进,--,000506
2016-09-30,郑强,个人,A股,205221434,22.11%,不变,--,000506
2016-09-30,卢粉,个人,A股,5700040,0.61%,不变,--,000506
2016-09-30,路程寒,个人,A股,4600000,0.50%,不变,--,000506
2017-09-30,王海榕,个人,A股,7100049,0.92%,350000,5.19%,000507
2017-09-30,黎东,个人,A股,5830000,0.76%,不变,--,000507
2017-09-30,吴民,个人,A股,4658180,0.60%,不变,--,000507
2017-09-30,刘正平,个人,A股,2515681,0.33%,不变,--,000507
2017-09-30,莫家碧,个人,A股,1850000,0.24%,新进,--,000507
2017-09-30,苏勇,个人,A股,1500000,0.19%,不变,--,000507
2017-09-30,李长浈,个人,A股,1253500,0.16%,新进,--,000507
2017-06-30,王海榕,个人,A股,6750049,0.87%,300000,4.65%,000507
2017-06-30,黎东,个人,A股,5830000,0.76%,30000,0.52%,000507
2017-06-30,吴民,个人,A股,4658180,0.60%,1600000,52.32%,000507
2017-06-30,刘正平,个人,A股,2515681,0.33%,不变,--,000507
2017-06-30,赵美贞,个人,A股,2106800,0.27%,新进,--,000507
2017-06-30,徐云峰,个人,A股,1786632,0.23%,新进,--,000507
2017-06-30,苏勇,个人,A股,1500000,0.19%,新进,--,000507
2017-03-31,王海榕,个人,A股,6450049,0.84%,不变,--,000507
2017-03-31,黎东,个人,A股,5800000,0.75%,新进,--,000507
2017-03-31,吴民,个人,A股,3058180,0.40%,新进,--,000507
2017-03-31,刘正平,个人,A股,2515681,0.33%,47681,1.93%,000507
2017-03-31,丁婉训,个人,A股,2180000,0.28%,-590789,-21.32%,000507
2016-12-31,王海榕,个人,A股,6450049,0.84%,不变,--,000507
2016-12-31,吴永进,个人,A股,3742525,0.48%,新进,--,000507
2016-12-31,蒋荣平,个人,A股,3185110,0.41%,新进,--,000507
2016-12-31,邹国平,个人,A股,3147709,0.41%,新进,--,000507
2016-12-31,丁婉训,个人,A股,2770789,0.36%,新进,--,000507
2016-12-31,刘正平,个人,A股,2468000,0.32%,新进,--,000507
2016-09-30,王海榕,个人,A股,6450049,0.84%,2074288,47.40%,000507
2017-09-30,黄文,个人,A股,5314000,0.64%,4000,0.08%,000509
2017-09-30,赵霄,个人,A股,4167004,0.51%,新进,--,000509
2017-06-30,黄文,个人,A股,5310000,0.64%,27100,0.51%,000509
2017-06-30,左建强,个人,A股,4931215,0.60%,-977543,-16.54%,000509
2017-06-30,蔡德山,个人,A股,3100722,0.38%,100600,3.35%,000509
2017-03-31,左建强,个人,A股,5908758,0.72%,2817409,91.14%,000509
2017-03-31,黄文,个人,A股,5282900,0.64%,-82200,-1.53%,000509
2017-03-31,蔡德山,个人,A股,3000122,0.36%,新进,--,000509
2016-12-31,黄文,个人,A股,5365100,0.86%,-99900,-1.83%,000509
2016-12-31,曹玲,个人,A股,5000668,0.80%,不变,--,000509
2016-12-31,彭文剑,个人,A股,4286500,0.68%,新进,--,000509
2016-12-31,史彩强,个人,A股,3308000,0.53%,-1536200,-31.71%,000509
2016-12-31,左建强,个人,A股,3091349,0.49%,新进,--,000509
2016-09-30,黄文,个人,A股,5465000,0.87%,25000,0.46%,000509
2016-09-30,曹玲,个人,A股,5000668,0.80%,不变,--,000509
2016-09-30,史彩强,个人,A股,4844200,0.77%,129800,2.75%,000509
2016-09-30,彭长虹,个人,A股,4583099,0.73%,新进,--,000509
2016-09-30,王禹衡,个人,A股,3171250,0.51%,新进,--,000509
2016-09-30,余安萍,个人,A股,2892100,0.46%,新进,--,000509
2017-09-30,刘江东,个人,A股,19882105,3.53%,4652525,30.55%,000510
2017-09-30,黄鑫,个人,A股,5489500,0.97%,新进,--,000510
2017-09-30,刘效敏,个人,A股,3889820,0.69%,-724180,-15.70%,000510
2017-06-30,刘江东,个人,A股,15229580,2.70%,不变,--,000510
2017-06-30,刘效敏,个人,A股,4614000,0.82%,944800,25.75%,000510
2017-03-31,刘江东,个人,A股,15229580,2.70%,不变,--,000510
2017-03-31,刘效敏,个人,A股,3669200,0.65%,新进,--,000510
2016-12-31,刘江东,个人,A股,15229580,2.70%,不变,--,000510
2016-12-31,高玉根,个人,A股,3251536,0.58%,新进,--,000510
2016-09-30,邓雄,个人,A股,19756254,3.51%,不变,--,000510
2016-09-30,刘江东,个人,A股,15229580,2.70%,不变,--,000510
2016-09-30,张维东,个人,A股,7169500,1.27%,-29417,-0.41%,000510
2017-09-30,肖立海,个人,A股,8658870,0.75%,不变,--,000511
2017-09-30,肖立江,个人,A股,3018835,0.26%,不变,--,000511
2017-09-30,何兆丽,个人,A股,2793470,0.24%,不变,--,000511
2017-09-30,李建雄,个人,A股,2300000,0.20%,不变,--,000511
2017-09-30,郭贞安,个人,A股,2200000,0.19%,不变,--,000511
2017-06-30,肖立海,个人,A股,8658870,0.75%,2090000,31.82%,000511
2017-06-30,肖立江,个人,A股,3018835,0.26%,530000,21.30%,000511
2017-06-30,何兆丽,个人,A股,2793470,0.24%,新进,--,000511
2017-06-30,李建雄,个人,A股,2300000,0.20%,不变,--,000511
2017-06-30,郭贞安,个人,A股,2200000,0.19%,不变,--,000511
2017-03-31,肖立海,个人,A股,6568870,0.57%,1680070,34.37%,000511
2017-03-31,肖立江,个人,A股,2488835,0.22%,新进,--,000511
2017-03-31,李建雄,个人,A股,2300000,0.20%,不变,--,000511
2017-03-31,梁璐,个人,A股,2289282,0.20%,新进,--,000511
2017-03-31,郭贞安,个人,A股,2200000,0.19%,新进,--,000511
2016-12-31,夏修晗,个人,A股,6764700,0.59%,新进,--,000511
2016-12-31,肖立海,个人,A股,4888800,0.42%,新进,--,000511
2016-12-31,黄国深,个人,A股,4764000,0.41%,新进,--,000511
2016-12-31,张丽华,个人,A股,4634000,0.40%,新进,--,000511
2016-12-31,钟振鑫,个人,A股,3504600,0.30%,新进,--,000511
2016-12-31,李建雄,个人,A股,2300000,0.20%,不变,--,000511
2016-09-30,谭澍坚,个人,A股,4978000,0.43%,不变,--,000511
2016-09-30,姚建平,个人,A股,2317501,0.20%,不变,--,000511
2016-09-30,李建雄,个人,A股,2300000,0.20%,不变,--,000511
2016-09-30,郭贞安,个人,A股,2200000,0.19%,不变,--,000511
2017-12-31,陈泽钦,个人,A股,3242353,0.38%,2210853,214.33%,000514
2017-12-31,鄢继雄,个人,A股,1279593,0.15%,不变,--,000514
2017-12-31,彭芳,个人,A股,1179174,0.14%,新进,--,000514
2017-12-31,谭艳,个人,A股,1013600,0.12%,4200,0.42%,000514
2017-12-31,王建兴,个人,A股,1000000,0.12%,63762,6.81%,000514
2017-09-30,张滨,个人,A股,1482902,0.18%,新进,--,000514
2017-09-30,鄢继雄,个人,A股,1279593,0.15%,新进,--,000514
2017-09-30,陈泽钦,个人,A股,1031500,0.12%,-68500,-6.23%,000514
2017-09-30,谭艳,个人,A股,1009400,0.12%,-62000,-5.79%,000514
2017-09-30,王建兴,个人,A股,936238,0.11%,新进,--,000514
2017-09-30,钱年英,个人,A股,818800,0.10%,30000,3.80%,000514
2017-06-30,陈泽钦,个人,A股,1100000,0.13%,新进,--,000514
2017-06-30,谭艳,个人,A股,1071400,0.13%,新进,--,000514
2017-06-30,张阳光,个人,A股,895900,0.11%,新进,--,000514
2017-06-30,钱年英,个人,A股,788800,0.09%,新进,--,000514
2017-06-30,陈军,个人,A股,758500,0.09%,80900,11.94%,000514
2017-03-31,刘明来,个人,A股,1482321,0.18%,新进,--,000514
2017-03-31,徐志华,个人,A股,1092400,0.13%,新进,--,000514
2017-03-31,陈涌,个人,A股,798800,0.09%,新进,--,000514
2017-03-31,蒋宏明,个人,A股,719866,0.09%,新进,--,000514
2017-03-31,陈军,个人,A股,677600,0.08%,新进,--,000514
2017-03-31,刘焕章,个人,A股,663000,0.08%,新进,--,000514
2016-12-31,刘云,个人,A股,4464700,0.53%,新进,--,000514
2016-12-31,管美华,个人,A股,4424800,0.52%,新进,--,000514
2016-12-31,潘永良,个人,A股,4378500,0.52%,新进,--,000514
2016-12-31,任秋云,个人,A股,4199500,0.50%,新进,--,000514
2016-12-31,杜建丽,个人,A股,4059418,0.48%,新进,--,000514
2016-12-31,蒋寅武,个人,A股,3913600,0.46%,新进,--,000514
2016-12-31,陈豪,个人,A股,3852200,0.46%,新进,--,000514
2016-12-31,王春青,个人,A股,3208300,0.38%,新进,--,000514
2016-12-31,熊山山,个人,A股,2851500,0.34%,新进,--,000514
2017-09-30,高原,个人,A股,13985985,0.72%,6128174,77.99%,000516
2017-09-30,曹鹤玲,个人,A股,12349443,0.64%,不变,--,000516
2017-09-30,王文学,个人,A股,11623350,0.60%,1902750,19.57%,000516
2017-06-30,曹鹤玲,个人,A股,12349443,0.64%,660000,5.65%,000516
2017-06-30,王文学,个人,A股,9720600,0.50%,新进,--,000516
2017-06-30,高原,个人,A股,7857811,0.41%,新进,--,000516
2017-03-31,唐秀芳,个人,A股,14159000,0.73%,不变,--,000516
2017-03-31,曹鹤玲,个人,A股,11689443,0.60%,不变,--,000516
2016-12-31,唐秀芳,个人,A股,14159000,0.73%,-4591000,-24.49%,000516
2016-12-31,曹鹤玲,个人,A股,11689443,0.60%,不变,--,000516
2016-09-30,唐秀芳,个人,A股,18750000,0.97%,不变,--,000516
2016-09-30,曹鹤玲,个人,A股,11689443,0.60%,新进,--,000516
2017-09-30,王怡心,个人,A股,750000000,24.71%,不变,--,000517
2017-09-30,王久芳,个人,A股,48750000,1.61%,不变,--,000517
2017-09-30,李卓,个人,A股,10000000,0.33%,不变,--,000517
2017-09-30,宫和霞,个人,A股,6227803,0.21%,不变,--,000517
2017-06-30,王怡心,个人,A股,750000000,24.71%,不变,--,000517
2017-06-30,王久芳,个人,A股,48750000,1.61%,不变,--,000517
2017-06-30,李卓,个人,A股,10000000,0.33%,3220000,47.49%,000517
2017-06-30,宫和霞,个人,A股,6227803,0.21%,不变,--,000517
2017-03-31,王怡心,个人,A股,750000000,24.71%,不变,--,000517
2017-03-31,王久芳,个人,A股,48750000,1.61%,不变,--,000517
2017-03-31,李卓,个人,A股,6780000,0.22%,1300000,23.72%,000517
2017-03-31,宫和霞,个人,A股,6227803,0.21%,不变,--,000517
2017-03-31,林伟,个人,A股,6200000,0.20%,不变,--,000517
2016-12-31,王怡心,个人,A股,750000000,24.71%,不变,--,000517
2016-12-31,王久芳,个人,A股,48750000,1.61%,不变,--,000517
2016-12-31,宫和霞,个人,A股,6227803,0.21%,新进,--,000517
2016-12-31,林伟,个人,A股,6200000,0.20%,新进,--,000517
2016-12-31,李卓,个人,A股,5480000,0.18%,新进,--,000517
2016-12-31,俞华,个人,A股,5184491,0.17%,新进,--,000517
2016-09-30,王怡心,个人,A股,750000000,24.71%,不变,--,000517
2016-09-30,王久芳,个人,A股,48750000,1.61%,不变,--,000517
2016-09-30,金海城,个人,A股,3684604,0.12%,新进,--,000517
2017-09-30,王洪明,个人,A股,102953443,10.00%,51789905,101.22%,000518
2017-09-30,郁琴芬,个人,A股,47357842,4.60%,新进,--,000518
2017-09-30,赵龙,个人,A股,43062918,4.18%,不变,--,000518
2017-09-30,徐瑞康,个人,A股,37330319,3.63%,不变,--,000518
2017-09-30,张惠丰,个人,A股,30539115,2.97%,不变,--,000518
2017-09-30,陈建国,个人,A股,26096809,2.53%,-931243,-3.45%,000518
2017-09-30,许稚,个人,A股,25939100,2.52%,新进,--,000518
2017-06-30,王洪明,个人,A股,51163538,4.97%,8591425,20.18%,000518
2017-06-30,赵龙,个人,A股,43062918,4.18%,不变,--,000518
2017-06-30,郁叙法,个人,A股,37996505,3.69%,12249135,47.57%,000518
2017-06-30,徐瑞康,个人,A股,37330319,3.63%,不变,--,000518
2017-06-30,张惠丰,个人,A股,30539115,2.97%,不变,--,000518
2017-06-30,陈建国,个人,A股,27028052,2.63%,新进,--,000518
2017-03-31,赵龙,个人,A股,43062918,4.18%,新进,--,000518
2017-03-31,王洪明,个人,A股,42572113,4.14%,13614271,47.01%,000518
2017-03-31,徐瑞康,个人,A股,37330319,3.63%,不变,--,000518
2017-03-31,张惠丰,个人,A股,30539115,2.97%,新进,--,000518
2017-03-31,许稚,个人,A股,25939100,2.52%,不变,--,000518
2017-03-31,郁叙法,个人,A股,25747370,2.50%,新进,--,000518
2016-12-31,陆宇,个人,A股,38911892,3.78%,4055149,11.63%,000518
2016-12-31,徐瑞康,个人,A股,37330319,3.63%,不变,--,000518
2016-12-31,王洪明,个人,A股,28957842,2.81%,6677111,29.97%,000518
2016-12-31,许稚,个人,A股,25939100,2.52%,不变,--,000518
2016-12-31,赵红,个人,A股,25297557,2.46%,不变,--,000518
2016-12-31,何斌,个人,A股,23448131,2.28%,新进,--,000518
2016-09-30,徐瑞康,个人,A股,37330319,3.63%,不变,--,000518
2016-09-30,陆宇,个人,A股,34856743,3.39%,12482246,55.79%,000518
2016-09-30,许稚,个人,A股,25939100,2.52%,不变,--,000518
2016-09-30,赵红,个人,A股,25297557,2.46%,不变,--,000518
2016-09-30,王洪明,个人,A股,22280731,2.16%,不变,--,000518
2016-09-30,赵龙,个人,A股,22033021,2.14%,不变,--,000518
2017-09-30,王四清,个人,A股,33745300,5.79%,128700,0.38%,000519
2017-09-30,喻国兵,个人,A股,9891600,1.70%,-400654,-3.89%,000519
2017-09-30,张粒,个人,A股,7558464,1.30%,22164,0.29%,000519
2017-06-30,王四清,个人,A股,33616600,5.77%,-343400,-1.01%,000519
2017-06-30,喻国兵,个人,A股,10292254,1.77%,-1197746,-10.42%,000519
2017-06-30,张粒,个人,A股,7536300,1.29%,196200,2.67%,000519
2017-03-31,王四清,个人,A股,33960000,5.83%,-90000,-0.26%,000519
2017-03-31,喻国兵,个人,A股,11490000,1.97%,-1980000,-14.70%,000519
2017-03-31,张粒,个人,A股,7340100,1.26%,-239900,-3.16%,000519
2016-12-31,王四清,个人,A股,34050000,5.84%,-7760318,-18.56%,000519
2016-12-31,喻国兵,个人,A股,13470000,2.31%,-1562365,-10.39%,000519
2016-12-31,张粒,个人,A股,7580000,1.30%,新进,--,000519
2016-09-30,王四清,个人,A股,41810318,7.17%,新进,--,000519
2016-09-30,喻国兵,个人,A股,15032365,2.58%,新进,--,000519
2017-09-30,李天虹,个人,A股,13300000,1.31%,1492400,12.64%,000520
2017-09-30,陈杰,个人,A股,13200000,1.30%,-140031,-1.05%,000520
2017-09-30,李天云,个人,A股,12060000,1.19%,-1620000,-11.84%,000520
2017-09-30,张伟丽,个人,A股,11901732,1.18%,6077784,104.36%,000520
2017-09-30,邹孝敏,个人,A股,11840100,1.17%,1480200,14.29%,000520
2017-09-30,洪更云,个人,A股,7008101,0.69%,新进,--,000520
2017-06-30,李天云,个人,A股,13680000,1.35%,6724891,96.69%,000520
2017-06-30,陈杰,个人,A股,13340031,1.32%,9150531,218.42%,000520
2017-06-30,李天虹,个人,A股,11807600,1.17%,4507600,61.75%,000520
2017-06-30,邹孝敏,个人,A股,10359900,1.02%,3059900,41.92%,000520
2017-06-30,张伟丽,个人,A股,5823948,0.58%,新进,--,000520
2017-03-31,李天虹,个人,A股,7300000,0.72%,新进,--,000520
2017-03-31,邹孝敏,个人,A股,7300000,0.72%,新进,--,000520
2017-03-31,李天云,个人,A股,6955109,0.69%,505109,7.83%,000520
2017-03-31,陈杰,个人,A股,4189500,0.41%,-2843000,-40.43%,000520
2017-03-31,康莉,个人,A股,3800000,0.38%,新进,--,000520
2016-12-31,黄小敏,个人,A股,8360700,0.83%,新进,--,000520
2016-12-31,陈杰,个人,A股,7032500,0.69%,新进,--,000520
2016-12-31,李天云,个人,A股,6450000,0.64%,1940934,43.05%,000520
2016-12-31,李燕,个人,A股,6379300,0.63%,新进,--,000520
2016-12-31,陈家浩,个人,A股,5926141,0.59%,新进,--,000520
2016-09-30,朱德宏,个人,A股,9445265,0.93%,-684886,-6.76%,000520
2016-09-30,李天云,个人,A股,4509066,0.45%,1809066,67.00%,000520
2016-09-30,王安生,个人,A股,3626300,0.36%,新进,--,000520
2016-09-30,陈文奎,个人,A股,3585400,0.35%,新进,--,000520
2017-09-30,CAO SHENGCHUN,个人,B股,13829083,1.83%,5900,0.04%,000521
2017-09-30,龙芹芳,个人,B股,3353496,0.44%,759,0.02%,000521
2017-06-30,CAO SHENGCHUN,个人,B股,13823183,1.83%,280976,2.07%,000521
2017-06-30,龙芹芳,个人,B股,3352737,0.44%,57800,1.75%,000521
2017-03-31,CAO SHENGCHUN,个人,B股,13542207,1.80%,不变,--,000521
2017-03-31,龙芹芳,个人,B股,3294937,0.44%,不变,--,000521
2016-12-31,CAO SHENGCHUN,个人,B股,13542207,1.80%,不变,--,000521
2016-12-31,龙芹芳,个人,B股,3294937,0.44%,不变,--,000521
2016-09-30,CAO SHENGCHUN,个人,B股,13542207,1.80%,181392,1.36%,000521
2016-09-30,吴彩银,个人,A股,10673996,1.42%,新进,--,000521
2016-09-30,龙芹芳,个人,B股,3294937,0.44%,不变,--,000521
2017-09-30,郑浩,个人,A股,7686300,1.72%,-1800,-0.02%,000523
2017-09-30,吴炎汉,个人,A股,4888400,1.10%,不变,--,000523
2017-09-30,刘世良,个人,A股,4138826,0.93%,不变,--,000523
2017-09-30,王炽旭,个人,A股,3900000,0.87%,不变,--,000523
2017-09-30,蒋文碧,个人,A股,3107200,0.70%,107000,3.57%,000523
2017-09-30,尹红,个人,A股,2960851,0.66%,-89800,-2.94%,000523
2017-06-30,郑浩,个人,A股,7688100,1.72%,-300,0.00%,000523
2017-06-30,吴炎汉,个人,A股,4888400,1.10%,-1050000,-17.68%,000523
2017-06-30,刘世良,个人,A股,4138826,0.93%,新进,--,000523
2017-06-30,王炽旭,个人,A股,3900000,0.87%,不变,--,000523
2017-06-30,尹红,个人,A股,3050651,0.68%,新进,--,000523
2017-06-30,蒋文碧,个人,A股,3000200,0.67%,454600,17.86%,000523
2017-03-31,郑浩,个人,A股,7688400,1.72%,不变,--,000523
2017-03-31,吴炎汉,个人,A股,5938400,1.33%,不变,--,000523
2017-03-31,王炽旭,个人,A股,3900000,0.87%,不变,--,000523
2017-03-31,蒋文碧,个人,A股,2545600,0.57%,新进,--,000523
2016-12-31,郑浩,个人,A股,7688400,1.72%,-1600,-0.02%,000523
2016-12-31,吴炎汉,个人,A股,5938400,1.33%,-800,-0.01%,000523
2016-12-31,王炽旭,个人,A股,3900000,0.87%,不变,--,000523
2016-09-30,郑浩,个人,A股,7690000,1.73%,不变,--,000523
2016-09-30,吴炎汉,个人,A股,5939200,1.33%,-800,-0.01%,000523
2016-09-30,王炽旭,个人,A股,3900000,0.87%,不变,--,000523
2017-09-30,陈庆辉,个人,A股,920100,0.34%,-3900,-0.42%,000524
2017-09-30,黎紫娟,个人,A股,900000,0.33%,-311000,-25.68%,000524
2017-09-30,冯翰超,个人,A股,834700,0.31%,-425400,-33.76%,000524
2017-09-30,陈彤宇,个人,A股,755700,0.28%,不变,--,000524
2017-09-30,庄海英,个人,A股,725000,0.27%,13500,1.90%,000524
2017-06-30,冯翰超,个人,A股,1260100,0.47%,184000,17.10%,000524
2017-06-30,黎紫娟,个人,A股,1211000,0.45%,-15200,-1.24%,000524
2017-06-30,陈庆辉,个人,A股,924000,0.34%,-200,-0.02%,000524
2017-06-30,陈彤宇,个人,A股,755700,0.28%,新进,--,000524
2017-06-30,庄海英,个人,A股,711500,0.26%,新进,--,000524
2017-06-30,苏一帆,个人,A股,636200,0.24%,新进,--,000524
2017-03-31,朱海红,个人,A股,1589989,0.59%,新进,--,000524
2017-03-31,管美华,个人,A股,1465901,0.54%,新进,--,000524
2017-03-31,黎紫娟,个人,A股,1226200,0.45%,105300,9.39%,000524
2017-03-31,王惠芳,个人,A股,1128921,0.42%,新进,--,000524
2017-03-31,冯翰超,个人,A股,1076100,0.40%,89000,9.02%,000524
2017-03-31,陈庆辉,个人,A股,924200,0.34%,100,0.01%,000524
2016-12-31,过佳博,个人,A股,1860000,0.69%,不变,--,000524
2016-12-31,黎紫娟,个人,A股,1120900,0.42%,新进,--,000524
2016-12-31,汪平,个人,A股,1031606,0.38%,新进,--,000524
2016-12-31,冯翰超,个人,A股,987100,0.37%,新进,--,000524
2016-12-31,陈庆辉,个人,A股,924100,0.34%,新进,--,000524
2016-09-30,过佳博,个人,A股,1860000,0.69%,-60000,-3.13%,000524
2016-09-30,老瑞雪,个人,A股,1200000,0.44%,新进,--,000524
2016-09-30,秦璐,个人,A股,1010036,0.37%,新进,--,000524
2017-09-30,胡军,个人,A股,5543344,1.09%,不变,--,000525
2017-06-30,胡军,个人,A股,5543344,1.09%,不变,--,000525
2017-06-30,梁安华,个人,A股,3290980,0.65%,131,0.00%,000525
2017-03-31,胡军,个人,A股,5543344,1.09%,不变,--,000525
2017-03-31,梁安华,个人,A股,3290849,0.65%,新进,--,000525
2016-12-31,张郑娥,个人,A股,6643540,1.31%,844871,14.57%,000525
2016-12-31,胡军,个人,A股,5543344,1.09%,不变,--,000525
2016-09-30,张郑娥,个人,A股,5798669,1.14%,新进,--,000525
2016-09-30,胡军,个人,A股,5543344,1.09%,不变,--,000525
2017-09-30,郭文娟,个人,A股,1511261,1.57%,420200,38.51%,000526
2017-09-30,俞晴,个人,A股,1300000,1.35%,-60000,-4.41%,000526
2017-09-30,刘伟,个人,A股,1103339,1.15%,不变,--,000526
2017-09-30,陈红,个人,A股,758600,0.79%,23900,3.25%,000526
2017-09-30,谌建平,个人,A股,747700,0.78%,-8500,-1.12%,000526
2017-06-30,俞晴,个人,A股,1360000,1.41%,新进,--,000526
2017-06-30,刘伟,个人,A股,1103339,1.15%,156300,16.50%,000526
2017-06-30,郭文娟,个人,A股,1091061,1.13%,254300,30.39%,000526
2017-06-30,谌建平,个人,A股,756200,0.79%,不变,--,000526
2017-06-30,陈红,个人,A股,734700,0.76%,新进,--,000526
2017-03-31,刘伟,个人,A股,947039,0.98%,新进,--,000526
2017-03-31,郭文娟,个人,A股,836761,0.87%,新进,--,000526
2017-03-31,谌建平,个人,A股,756200,0.79%,-153900,-16.91%,000526
2017-03-31,于佳栋,个人,A股,680000,0.71%,不变,--,000526
2016-12-31,谌建平,个人,A股,910100,0.95%,112200,14.06%,000526
2016-12-31,于佳栋,个人,A股,680000,0.71%,不变,--,000526
2016-09-30,景华,个人,A股,1290000,1.34%,-3238951,-71.52%,000526
2016-09-30,谌建平,个人,A股,797900,0.83%,142400,21.72%,000526
2016-09-30,于佳栋,个人,A股,680000,0.71%,新进,--,000526
2017-09-30,阎占表,个人,A股,8000000,1.40%,-229900,-2.79%,000529
2017-09-30,吴小仙,个人,A股,2246400,0.39%,新进,--,000529
2017-09-30,崔丽舒,个人,A股,2180000,0.38%,30000,1.40%,000529
2017-09-30,李连安,个人,A股,2029757,0.36%,不变,--,000529
2017-09-30,牟柏霖,个人,A股,1964682,0.34%,新进,--,000529
2017-06-30,阎占表,个人,A股,8229900,1.44%,957700,13.17%,000529
2017-06-30,崔丽舒,个人,A股,2150000,0.38%,新进,--,000529
2017-06-30,李连安,个人,A股,2029757,0.36%,新进,--,000529
2017-03-31,阎占表,个人,A股,7272200,1.28%,2704400,59.21%,000529
2016-12-31,阎占表,个人,A股,4567800,0.81%,2111100,85.93%,000529
2016-12-31,蒋晓莉,个人,A股,2605957,0.46%,新进,--,000529
2016-09-30,吴小仙,个人,A股,2801150,0.49%,不变,--,000529
2016-09-30,潘督童,个人,A股,2521800,0.44%,不变,--,000529
2016-09-30,阎占表,个人,A股,2456700,0.43%,新进,--,000529
2016-09-30,陈小定,个人,A股,2265454,0.40%,不变,--,000529
2017-09-30,林镇铭,个人,B股,6190000,0.75%,-40000,-0.64%,000530
2017-09-30,孙慧明,个人,B股,5634499,0.68%,新进,--,000530
2017-06-30,林镇铭,个人,B股,6230000,0.75%,1780000,40.00%,000530
2017-03-31,林镇铭,个人,B股,4450000,0.86%,30000,0.68%,000530
2017-03-31,孙慧明,个人,B股,3724449,0.72%,不变,--,000530
2017-03-31,吴安,个人,B股,3110036,0.60%,新进,--,000530
2016-12-31,林镇铭,个人,B股,4420000,0.86%,9950,0.23%,000530
2016-12-31,孙慧明,个人,B股,3724449,0.72%,不变,--,000530
2016-09-30,林镇铭,个人,B股,4410050,0.86%,250050,6.01%,000530
2016-09-30,孙慧明,个人,B股,3724449,0.72%,不变,--,000530
2017-09-30,张武,个人,A股,5110031,0.75%,2110031,70.33%,000531
2017-09-30,叶立棋,个人,A股,4667059,0.68%,2900,0.06%,000531
2017-09-30,丁春林,个人,A股,3109157,0.45%,不变,--,000531
2017-09-30,贾连喜,个人,A股,2410300,0.35%,336159,16.21%,000531
2017-09-30,罗晶,个人,A股,1790226,0.26%,新进,--,000531
2017-06-30,叶立棋,个人,A股,4664159,0.68%,185600,4.14%,000531
2017-06-30,丁春林,个人,A股,3109157,0.45%,64200,2.11%,000531
2017-06-30,张武,个人,A股,3000000,0.44%,新进,--,000531
2017-06-30,贾连喜,个人,A股,2074141,0.30%,新进,--,000531
2017-03-31,黄海晓,个人,A股,6201260,0.91%,-2480695,-28.57%,000531
2017-03-31,叶立棋,个人,A股,4478559,0.65%,1679100,59.98%,000531
2017-03-31,丁春林,个人,A股,3044957,0.44%,新进,--,000531
2017-03-31,蔡伟民,个人,A股,1967900,0.29%,149900,8.25%,000531
2016-12-31,黄海晓,个人,A股,8681955,1.27%,不变,--,000531
2016-12-31,徐俊,个人,A股,2967400,0.43%,不变,--,000531
2016-12-31,叶立棋,个人,A股,2799459,0.41%,不变,--,000531
2016-12-31,蔡伟民,个人,A股,1818000,0.27%,不变,--,000531
2016-09-30,黄海晓,个人,A股,8681955,1.27%,不变,--,000531
2016-09-30,徐俊,个人,A股,2967400,0.43%,-96,0.00%,000531
2016-09-30,叶立棋,个人,A股,2799459,0.41%,600,0.02%,000531
2016-09-30,蔡伟民,个人,A股,1818000,0.27%,新进,--,000531
2017-09-30,李葛卫,个人,A股,2150000,0.63%,不变,--,000532
2017-09-30,彭超,个人,A股,1000000,0.29%,新进,--,000532
2017-09-30,沙剑,个人,A股,887868,0.26%,新进,--,000532
2017-09-30,王毅,个人,A股,813508,0.24%,新进,--,000532
2017-06-30,李葛卫,个人,A股,2150000,0.63%,-150000,-6.52%,000532
2017-03-31,李葛卫,个人,A股,2300000,0.67%,新进,--,000532
2017-03-31,张桂金,个人,A股,1788100,0.52%,不变,--,000532
2016-12-31,崔伟,个人,A股,1896000,0.55%,新进,--,000532
2016-12-31,张桂金,个人,A股,1788100,0.52%,新进,--,000532
2016-12-31,吴斌,个人,A股,1630000,0.47%,新进,--,000532
2016-09-30,李红珍,个人,A股,1820000,0.53%,新进,--,000532
2016-09-30,钟大根,个人,A股,1574352,0.46%,新进,--,000532
2017-09-30,张明园,个人,A股,54472109,7.95%,不变,--,000533
2017-09-30,温洪标,个人,A股,11667217,1.70%,56686,0.49%,000533
2017-06-30,张明园,个人,A股,54472109,7.95%,不变,--,000533
2017-06-30,温洪标,个人,A股,11610531,1.70%,不变,--,000533
2017-03-31,张明园,个人,A股,54472109,7.95%,不变,--,000533
2017-03-31,温洪标,个人,A股,11610531,1.70%,850872,7.91%,000533
2017-03-31,邵伟华,个人,A股,5000000,0.73%,不变,--,000533
2016-12-31,张明园,个人,A股,54472109,7.95%,不变,--,000533
2016-12-31,温洪标,个人,A股,10759659,1.57%,2497100,30.22%,000533
2016-12-31,邵伟华,个人,A股,5000000,0.73%,不变,--,000533
2016-12-31,谢文贤,个人,A股,3700000,0.54%,-1300000,-26.00%,000533
2016-12-31,张曙光,个人,A股,3500000,0.51%,160000,4.79%,000533
2016-09-30,张明园,个人,A股,54472109,7.95%,新进,--,000533
2016-09-30,温洪标,个人,A股,8262559,1.21%,288291,3.62%,000533
2016-09-30,谢文贤,个人,A股,5000000,0.73%,430887,9.43%,000533
2016-09-30,邵伟华,个人,A股,5000000,0.73%,不变,--,000533
2016-09-30,张曙光,个人,A股,3340000,0.49%,新进,--,000533
2017-09-30,李敏仙,个人,A股,17413264,3.54%,-491736,-2.75%,000534
2017-06-30,李敏仙,个人,A股,17905000,3.64%,2078456,13.13%,000534
2017-03-31,李敏仙,个人,A股,15826544,3.22%,12055686,319.71%,000534
2016-12-31,李敏仙,个人,A股,3770858,0.77%,新进,--,000534
2016-09-30,刘士彬,个人,A股,8939418,1.82%,-1290850,-12.62%,000534
2016-09-30,李辛,个人,A股,4614123,0.94%,-992429,-17.70%,000534
2017-09-30,李邓,个人,A股,3215526,0.26%,新进,--,000536
2017-06-30,陈鹏,个人,A股,3541863,0.28%,新进,--,000536
2017-03-31,周立春,个人,A股,3040422,0.39%,新进,--,000536
2017-03-31,楼文胜,个人,A股,2180600,0.28%,新进,--,000536
2016-12-31,陈磊,个人,A股,5261126,0.68%,新进,--,000536
2016-12-31,蒋太年,个人,A股,2737599,0.35%,239364,9.58%,000536
2017-09-30,罗瑞云,个人,A股,9753593,1.90%,2420790,33.01%,000537
2017-09-30,汪向东,个人,A股,6800000,1.33%,1839500,37.08%,000537
2017-09-30,王春艳,个人,A股,6256675,1.22%,1477800,30.92%,000537
2017-09-30,张伟,个人,A股,5629091,1.10%,新进,--,000537
2017-09-30,王雪梅,个人,A股,5105291,1.00%,不变,--,000537
2017-06-30,罗瑞云,个人,A股,7332803,1.43%,-687754,-8.57%,000537
2017-06-30,王雪梅,个人,A股,5105291,1.00%,不变,--,000537
2017-06-30,汪向东,个人,A股,4960500,0.97%,不变,--,000537
2017-06-30,王春艳,个人,A股,4778875,0.93%,967200,25.37%,000537
2017-06-30,杨征,个人,A股,4106341,0.80%,58200,1.44%,000537
2017-06-30,陈东升,个人,A股,3161700,0.62%,新进,--,000537
2017-06-30,王贇,个人,A股,3001855,0.59%,新进,--,000537
2017-03-31,罗瑞云,个人,A股,8020557,1.56%,-414989,-4.92%,000537
2017-03-31,王雪梅,个人,A股,5105291,1.00%,不变,--,000537
2017-03-31,汪向东,个人,A股,4960500,0.97%,不变,--,000537
2017-03-31,杨征,个人,A股,4048141,0.79%,新进,--,000537
2017-03-31,王春艳,个人,A股,3811675,0.74%,新进,--,000537
2016-12-31,罗瑞云,个人,A股,8435546,1.65%,438967,5.49%,000537
2016-12-31,王雪梅,个人,A股,5105291,1.00%,不变,--,000537
2016-12-31,汪向东,个人,A股,4960500,0.97%,不变,--,000537
2016-09-30,罗瑞云,个人,A股,7996579,1.56%,109506,1.39%,000537
2016-09-30,王雪梅,个人,A股,5105291,1.00%,不变,--,000537
2016-09-30,汪向东,个人,A股,4960500,0.97%,不变,--,000537
2016-09-30,杨征,个人,A股,3963062,0.77%,新进,--,000537
2017-09-30,陈发树,个人,A股,8948211,0.86%,不变,--,000538
2017-06-30,陈发树,个人,A股,8948211,0.86%,不变,--,000538
2017-03-31,陈发树,个人,A股,8948211,0.86%,不变,--,000538
2016-12-31,陈发树,个人,A股,8948211,0.86%,不变,--,000538
2016-09-30,陈发树,个人,A股,8948211,0.86%,不变,--,000538
2017-09-30,李卓,个人,A股,31009743,0.93%,9058358,41.27%,000539
2017-09-30,郑建祥,个人,B股,18453452,0.55%,新进,--,000539
2017-06-30,李卓,个人,A股,21951385,0.65%,628000,2.95%,000539
2017-03-31,李卓,个人,A股,21323385,0.64%,-39200,-0.18%,000539
2016-12-31,李卓,个人,A股,21362585,0.64%,不变,--,000539
2016-09-30,李卓,个人,A股,21362585,0.64%,58800,0.28%,000539
2017-09-30,陈伟利,个人,A股,13880000,0.35%,4680000,50.87%,000540
2017-09-30,宋建波,个人,A股,8448621,0.21%,不变,--,000540
2017-09-30,郑舜珍,个人,A股,5500700,0.14%,新进,--,000540
2017-06-30,周珠林,个人,A股,12295479,0.31%,不变,--,000540
2017-06-30,陈伟利,个人,A股,9200000,0.23%,新进,--,000540
2017-06-30,宋建波,个人,A股,8448621,0.21%,不变,--,000540
2017-06-30,于军,个人,A股,7567124,0.19%,-305900,-3.89%,000540
2017-03-31,周珠林,个人,A股,12295479,0.31%,不变,--,000540
2017-03-31,宋建波,个人,A股,8448621,0.21%,49591,0.59%,000540
2017-03-31,于军,个人,A股,7873024,0.20%,不变,--,000540
2016-12-31,周珠林,个人,A股,12295479,0.31%,592800,5.07%,000540
2016-12-31,宋建波,个人,A股,8399030,0.21%,不变,--,000540
2016-12-31,于军,个人,A股,7873024,0.20%,新进,--,000540
2016-09-30,周珠林,个人,A股,11702679,0.30%,594900,5.36%,000540
2016-09-30,宋建波,个人,A股,8399030,0.21%,不变,--,000540
2017-09-30,彭伟燕,个人,A股,8546042,0.68%,新进,--,000541
2017-09-30,徐克伟,个人,A股,15127350,0.84%,55900,0.37%,000543
2017-09-30,肖赛花,个人,A股,5003900,0.28%,新进,--,000543
2017-09-30,胡立新,个人,A股,4855117,0.27%,新进,--,000543
2017-06-30,黄海晓,个人,A股,18548007,1.04%,7591955,69.29%,000543
2017-06-30,徐克伟,个人,A股,15071450,0.84%,不变,--,000543
2017-03-31,徐克伟,个人,A股,15071450,0.84%,不变,--,000543
2017-03-31,黄海晓,个人,A股,10956052,0.61%,2257000,25.95%,000543
2017-03-31,徐永祥,个人,A股,7000000,0.39%,不变,--,000543
2017-03-31,徐俊,个人,A股,6057405,0.34%,新进,--,000543
2017-03-31,蒋必恺,个人,A股,6000000,0.34%,不变,--,000543
2016-12-31,徐克伟,个人,A股,15071450,0.84%,不变,--,000543
2016-12-31,林绍康,个人,A股,13507548,0.75%,-651200,-4.60%,000543
2016-12-31,黄海晓,个人,A股,8699052,0.49%,新进,--,000543
2016-12-31,徐永祥,个人,A股,7000000,0.39%,不变,--,000543
2016-12-31,蒋必恺,个人,A股,6000000,0.34%,新进,--,000543
2016-09-30,徐克伟,个人,A股,15071450,0.84%,6362780,73.06%,000543
2016-09-30,林绍康,个人,A股,14158748,0.79%,-6894597,-32.75%,000543
2016-09-30,徐永祥,个人,A股,7000000,0.39%,不变,--,000543
2016-09-30,蒋少华,个人,A股,5820000,0.33%,新进,--,000543
2017-09-30,谢艺群,个人,A股,2934196,0.84%,31996,1.10%,000544
2017-09-30,黄语晨,个人,A股,2909600,0.84%,新进,--,000544
2017-09-30,吴洁,个人,A股,2679453,0.77%,不变,--,000544
2017-09-30,赵妙真,个人,A股,2563200,0.74%,新进,--,000544
2017-06-30,谢艺群,个人,A股,2902200,1.08%,-1000,-0.03%,000544
2017-06-30,吴洁,个人,A股,2679453,0.99%,新进,--,000544
2017-06-30,刘秋萍,个人,A股,2518500,0.93%,2900,0.12%,000544
2017-06-30,刘素玉,个人,A股,2480600,0.92%,-3300,-0.13%,000544
2017-06-30,潘惠璋,个人,A股,2078915,0.77%,新进,--,000544
2017-06-30,林彬彬,个人,A股,2074200,0.77%,18600,0.90%,000544
2017-06-30,文能,个人,A股,1936626,0.72%,新进,--,000544
2017-06-30,刘娟,个人,A股,1884416,0.70%,新进,--,000544
2017-06-30,梁忠伟,个人,A股,1832400,0.68%,新进,--,000544
2017-03-31,余银连,个人,A股,3273910,1.21%,新进,--,000544
2017-03-31,谢艺群,个人,A股,2903200,1.08%,新进,--,000544
2017-03-31,黄语晨,个人,A股,2566500,0.95%,新进,--,000544
2017-03-31,刘秋萍,个人,A股,2515600,0.93%,新进,--,000544
2017-03-31,刘素玉,个人,A股,2483900,0.92%,新进,--,000544
2017-03-31,林彬彬,个人,A股,2055600,0.76%,新进,--,000544
2017-03-31,陈进金,个人,A股,1823766,0.68%,新进,--,000544
2017-03-31,杨素娟,个人,A股,1764400,0.65%,16984,0.97%,000544
2017-03-31,陈添寿,个人,A股,1753900,0.65%,新进,--,000544
2016-12-31,孙小贞,个人,A股,2385274,0.89%,新进,--,000544
2016-12-31,李娜清,个人,A股,1943655,0.72%,新进,--,000544
2016-12-31,陈永强,个人,A股,1872673,0.69%,新进,--,000544
2016-12-31,陈梅东,个人,A股,1809600,0.67%,新进,--,000544
2016-12-31,杨素娟,个人,A股,1747416,0.65%,新进,--,000544
2016-12-31,孙雨萌,个人,A股,1733352,0.64%,新进,--,000544
2016-12-31,文能,个人,A股,1708906,0.63%,不变,--,000544
2016-09-30,文能,个人,A股,1708906,0.63%,-170000,-9.05%,000544
2016-09-30,陈亚卿,个人,A股,1328600,0.49%,新进,--,000544
2017-09-30,王小江,个人,A股,7380486,0.77%,-1566600,-17.51%,000545
2017-09-30,曹辉进,个人,A股,4580000,0.48%,-600900,-11.60%,000545
2017-09-30,李斌,个人,A股,3803530,0.40%,200,0.01%,000545
2017-09-30,柳冰,个人,A股,3759800,0.39%,不变,--,000545
2017-06-30,王小江,个人,A股,8947086,0.93%,40000,0.45%,000545
2017-06-30,曹辉进,个人,A股,5180900,0.54%,新进,--,000545
2017-06-30,何倩兴,个人,A股,4002500,0.42%,1576700,65.00%,000545
2017-06-30,李斌,个人,A股,3803330,0.40%,新进,--,000545
2017-06-30,柳冰,个人,A股,3759800,0.39%,不变,--,000545
2017-03-31,王小江,个人,A股,8907086,0.93%,-2100700,-19.08%,000545
2017-03-31,柳冰,个人,A股,3759800,0.39%,不变,--,000545
2017-03-31,何倩兴,个人,A股,2425800,0.25%,新进,--,000545
2017-03-31,陈红妹,个人,A股,2410000,0.25%,5000,0.21%,000545
2016-12-31,王小江,个人,A股,11007786,1.15%,-819400,-6.93%,000545
2016-12-31,夏重阳,个人,A股,5580000,0.58%,新进,--,000545
2016-12-31,柳冰,个人,A股,3759800,0.39%,不变,--,000545
2016-12-31,陈红妹,个人,A股,2405000,0.25%,不变,--,000545
2016-09-30,王小江,个人,A股,11827186,1.23%,新进,--,000545
2016-09-30,柳冰,个人,A股,3759800,0.39%,-200,-0.01%,000545
2016-09-30,陈红妹,个人,A股,2405000,0.25%,8000,0.33%,000545
2017-09-30,范皓辉,个人,A股,10333425,3.43%,不变,--,000546
2017-09-30,徐亚清,个人,A股,8890000,2.95%,不变,--,000546
2017-09-30,胡甘棉,个人,A股,6264951,2.08%,新进,--,000546
2017-09-30,田榕,个人,A股,4975735,1.65%,新进,--,000546
2017-09-30,田峰,个人,A股,4441908,1.48%,新进,--,000546
2017-06-30,范皓辉,个人,A股,10333425,3.43%,不变,--,000546
2017-06-30,邱永平,个人,A股,9203535,3.06%,新进,--,000546
2017-06-30,徐亚清,个人,A股,8890000,2.95%,不变,--,000546
2017-06-30,唐笑波,个人,A股,3056000,1.02%,788100,34.75%,000546
2017-06-30,冯恒谊,个人,A股,3001074,1.00%,新进,--,000546
2017-03-31,范皓辉,个人,A股,10333425,3.78%,不变,--,000546
2017-03-31,徐亚清,个人,A股,8890000,3.25%,不变,--,000546
2017-03-31,唐笑波,个人,A股,2267900,0.83%,新进,--,000546
2017-03-31,郑鹿鸣,个人,A股,2230000,0.81%,新进,--,000546
2017-03-31,彭林海,个人,A股,2216000,0.81%,新进,--,000546
2016-12-31,范皓辉,个人,A股,10333425,3.78%,不变,--,000546
2016-12-31,徐亚清,个人,A股,8890000,3.25%,不变,--,000546
2016-09-30,范皓辉,个人,A股,10333425,3.78%,不变,--,000546
2016-09-30,徐亚清,个人,A股,8890000,3.25%,不变,--,000546
2017-09-30,蔡倩,个人,A股,24380000,2.52%,-970000,-3.83%,000547
2017-09-30,牛封,个人,A股,16486919,1.71%,新进,--,000547
2017-09-30,佟建勋,个人,A股,16001717,1.66%,新进,--,000547
2017-06-30,蔡倩,个人,A股,25350000,2.81%,-16562000,-39.52%,000547
2017-06-30,郎红宾,个人,A股,8800200,0.98%,-31099900,-77.94%,000547
2017-03-31,蔡倩,个人,A股,41912000,4.65%,-18094000,-30.15%,000547
2017-03-31,郎红宾,个人,A股,39900100,4.43%,-10100034,-20.20%,000547
2016-12-31,蔡倩,个人,A股,60006000,6.66%,不变,--,000547
2016-12-31,郎红宾,个人,A股,50000134,5.55%,不变,--,000547
2016-09-30,蔡倩,个人,A股,60006000,6.66%,不变,--,000547
2016-09-30,郎红宾,个人,A股,50000134,5.55%,不变,--,000547
2017-09-30,池汉雄,个人,A股,7053500,1.41%,223500,3.27%,000548
2017-09-30,夏世勇,个人,A股,5667812,1.14%,不变,--,000548
2017-09-30,王雪,个人,A股,4472700,0.90%,772700,20.88%,000548
2017-09-30,李增琪,个人,A股,2960794,0.59%,1396101,89.23%,000548
2017-09-30,石金旺,个人,A股,2248596,0.45%,-300,-0.01%,000548
2017-09-30,谭德富,个人,A股,1942151,0.39%,新进,--,000548
2017-09-30,李永宏,个人,A股,1680000,0.34%,-54900,-3.16%,000548
2017-09-30,林耀礼,个人,A股,1650000,0.33%,不变,--,000548
2017-09-30,马彦文,个人,A股,1576800,0.32%,新进,--,000548
2017-06-30,池汉雄,个人,A股,6830000,1.37%,170000,2.55%,000548
2017-06-30,夏世勇,个人,A股,5667812,1.14%,不变,--,000548
2017-06-30,王雪,个人,A股,3700000,0.74%,691300,22.98%,000548
2017-06-30,张振川,个人,A股,2635800,0.53%,新进,--,000548
2017-06-30,石金旺,个人,A股,2248896,0.45%,8200,0.37%,000548
2017-06-30,李永宏,个人,A股,1734900,0.35%,204900,13.39%,000548
2017-06-30,林耀礼,个人,A股,1650000,0.33%,不变,--,000548
2017-06-30,李增琪,个人,A股,1564693,0.31%,新进,--,000548
2017-06-30,陈惠,个人,A股,1500000,0.30%,不变,--,000548
2017-03-31,池汉雄,个人,A股,6660000,1.33%,942200,16.48%,000548
2017-03-31,夏世勇,个人,A股,5667812,1.14%,不变,--,000548
2017-03-31,王雪,个人,A股,3008700,0.60%,498657,19.87%,000548
2017-03-31,张汝凰,个人,A股,2793256,0.56%,16200,0.58%,000548
2017-03-31,石金旺,个人,A股,2240696,0.45%,-30000,-1.32%,000548
2017-03-31,林耀礼,个人,A股,1650000,0.33%,新进,--,000548
2017-03-31,李永宏,个人,A股,1530000,0.31%,-1110000,-42.05%,000548
2017-03-31,陈惠,个人,A股,1500000,0.30%,新进,--,000548
2017-03-31,王伯达,个人,A股,1450000,0.29%,新进,--,000548
2016-12-31,池汉雄,个人,A股,5717800,1.15%,新进,--,000548
2016-12-31,夏世勇,个人,A股,5667812,1.14%,不变,--,000548
2016-12-31,张汝凰,个人,A股,2777056,0.56%,7556,0.27%,000548
2016-12-31,李永宏,个人,A股,2640000,0.53%,30000,1.15%,000548
2016-12-31,王雪,个人,A股,2510043,0.50%,-189957,-7.04%,000548
2016-12-31,石金旺,个人,A股,2270696,0.45%,70689,3.21%,000548
2016-12-31,缪荣凯,个人,A股,1862200,0.37%,-12800,-0.68%,000548
2016-09-30,夏世勇,个人,A股,5667812,1.14%,不变,--,000548
2016-09-30,张汝凰,个人,A股,2769500,0.55%,-15100,-0.54%,000548
2016-09-30,王雪,个人,A股,2700000,0.54%,154823,6.08%,000548
2016-09-30,李永宏,个人,A股,2610000,0.52%,-20000,-0.76%,000548
2016-09-30,石金旺,个人,A股,2200007,0.44%,新进,--,000548
2016-09-30,缪荣凯,个人,A股,1875000,0.38%,新进,--,000548
2016-09-30,林耀礼,个人,A股,1600000,0.32%,新进,--,000548
2017-09-30,徐东,个人,A股,19994606,5.00%,不变,--,000551
2017-09-30,王柯华,个人,A股,7592950,1.90%,813800,12.00%,000551
2017-09-30,张铂,个人,A股,6958639,1.74%,1075,0.02%,000551
2017-09-30,陈越孟,个人,A股,4388000,1.10%,88000,2.05%,000551
2017-09-30,陈述秋,个人,A股,1726782,0.43%,不变,--,000551
2017-09-30,季法强,个人,A股,1690000,0.42%,138300,8.91%,000551
2017-09-30,杨少荣,个人,A股,1370802,0.34%,新进,--,000551
2017-06-30,徐东,个人,A股,19994606,5.00%,5447350,37.45%,000551
2017-06-30,张铂,个人,A股,6957564,1.74%,210000,3.11%,000551
2017-06-30,王柯华,个人,A股,6779150,1.69%,192000,2.91%,000551
2017-06-30,陈越孟,个人,A股,4300000,1.07%,-35733,-0.82%,000551
2017-06-30,陈述秋,个人,A股,1726782,0.43%,不变,--,000551
2017-06-30,季法强,个人,A股,1551700,0.39%,新进,--,000551
2017-06-30,林军,个人,A股,1445339,0.36%,新进,--,000551
2017-03-31,徐东,个人,A股,14547256,3.64%,12300,0.08%,000551
2017-03-31,张铂,个人,A股,6747564,1.69%,17800,0.26%,000551
2017-03-31,王柯华,个人,A股,6587150,1.65%,487150,7.99%,000551
2017-03-31,陈越孟,个人,A股,4335733,1.08%,100000,2.36%,000551
2017-03-31,赖福平,个人,A股,2007667,0.50%,不变,--,000551
2017-03-31,陈述秋,个人,A股,1726782,0.43%,新进,--,000551
2017-03-31,金燕,个人,A股,1639330,0.41%,新进,--,000551
2016-12-31,徐东,个人,A股,14534956,3.63%,不变,--,000551
2016-12-31,张铂,个人,A股,6729764,1.68%,-195200,-2.82%,000551
2016-12-31,王柯华,个人,A股,6100000,1.52%,新进,--,000551
2016-12-31,陈越孟,个人,A股,4235733,1.06%,327233,8.37%,000551
2016-12-31,赖福平,个人,A股,2007667,0.50%,新进,--,000551
2016-09-30,徐东,个人,A股,14534956,3.63%,不变,--,000551
2016-09-30,张铂,个人,A股,6924964,1.73%,不变,--,000551
2016-09-30,陈越孟,个人,A股,3908500,0.98%,150000,3.99%,000551
2016-09-30,陈述秋,个人,A股,1726782,0.43%,16500,0.96%,000551
2016-09-30,季法强,个人,A股,1403521,0.35%,新进,--,000551
2016-09-30,郝明霞,个人,A股,1150000,0.29%,新进,--,000551
2017-09-30,夏重阳,个人,A股,26060000,1.67%,新进,--,000552
2017-03-31,夏重阳,个人,A股,14470000,0.93%,-1710000,-10.57%,000552
2016-12-31,夏重阳,个人,A股,16180000,1.04%,新进,--,000552
2017-09-30,谢庆军,个人,B股,4490033,0.76%,31800,0.71%,000553
2017-09-30,石云,个人,A股,2830000,0.48%,-537606,-15.96%,000553
2017-09-30,周奇平,个人,A股,2093045,0.35%,166800,8.66%,000553
2017-06-30,谢庆军,个人,B股,4458233,0.75%,683033,18.09%,000553
2017-06-30,石云,个人,A股,3367606,0.57%,567606,20.27%,000553
2017-06-30,周奇平,个人,A股,1926245,0.32%,-137000,-6.64%,000553
2017-06-30,胡春婉,个人,B股,1300444,0.22%,197316,17.89%,000553
2017-03-31,谢庆军,个人,B股,3775200,0.64%,316420,9.15%,000553
2017-03-31,石云,个人,A股,2800000,0.47%,-790017,-22.01%,000553
2017-03-31,周奇平,个人,A股,2063245,0.35%,新进,--,000553
2017-03-31,胡春婉,个人,B股,1103128,0.19%,89900,8.87%,000553
2017-03-31,钱条员,个人,A股,1066600,0.18%,新进,--,000553
2016-12-31,石云,个人,A股,3590017,0.60%,新进,--,000553
2016-12-31,谢庆军,个人,B股,3458780,0.58%,新进,--,000553
2016-12-31,胡春婉,个人,B股,1013228,0.17%,新进,--,000553
2016-12-31,叶珍成,个人,B股,975830,0.16%,新进,--,000553
2016-09-30,陈黎春,个人,A股,6790954,1.14%,不变,--,000553
2016-09-30,姜建,个人,A股,3595123,0.61%,不变,--,000553
2017-09-30,屠秋,个人,A股,4200000,1.16%,-50000,-1.18%,000554
2017-09-30,白婷婷,个人,A股,3932600,1.08%,不变,--,000554
2017-09-30,李建明,个人,A股,2468600,0.68%,新进,--,000554
2017-09-30,张卫红,个人,A股,2315517,0.64%,209000,9.92%,000554
2017-09-30,李跃明,个人,A股,2028232,0.56%,新进,--,000554
2017-09-30,张明星,个人,A股,1889175,0.52%,-1390726,-42.40%,000554
2017-09-30,柯怀强,个人,A股,1885580,0.52%,新进,--,000554
2017-09-30,谢漠良,个人,A股,1703254,0.47%,新进,--,000554
2017-06-30,屠秋,个人,A股,4250000,1.17%,-200000,-4.49%,000554
2017-06-30,白婷婷,个人,A股,3932600,1.08%,316000,8.74%,000554
2017-06-30,王楚宜,个人,A股,3679405,1.01%,-3254600,-46.94%,000554
2017-06-30,张明星,个人,A股,3279901,0.90%,不变,--,000554
2017-06-30,王文霞,个人,A股,2366900,0.65%,新进,--,000554
2017-06-30,张卫红,个人,A股,2106517,0.58%,不变,--,000554
2017-03-31,王楚宜,个人,A股,6934005,1.91%,不变,--,000554
2017-03-31,屠秋,个人,A股,4450000,1.23%,-90000,-1.98%,000554
2017-03-31,倪少娜,个人,A股,4224900,1.17%,25600,0.61%,000554
2017-03-31,白婷婷,个人,A股,3616600,1.00%,-296800,-7.58%,000554
2017-03-31,张明星,个人,A股,3279901,0.90%,44200,1.37%,000554
2017-03-31,徐宁,个人,A股,2331400,0.64%,新进,--,000554
2017-03-31,谢漠良,个人,A股,2203200,0.61%,新进,--,000554
2017-03-31,张卫红,个人,A股,2106517,0.58%,新进,--,000554
2016-12-31,王楚宜,个人,A股,6934005,1.91%,445758,6.87%,000554
2016-12-31,屠秋,个人,A股,4540000,1.25%,-244800,-5.12%,000554
2016-12-31,倪少娜,个人,A股,4199300,1.16%,不变,--,000554
2016-12-31,白婷婷,个人,A股,3913400,1.08%,113400,2.98%,000554
2016-12-31,张明星,个人,A股,3235701,0.89%,新进,--,000554
2016-12-31,张玉敏,个人,A股,3200000,0.88%,新进,--,000554
2016-12-31,张志毅,个人,A股,2037700,0.56%,新进,--,000554
2016-09-30,王楚宜,个人,A股,6488247,1.79%,200000,3.18%,000554
2016-09-30,屠秋,个人,A股,4784800,1.32%,-85200,-1.75%,000554
2016-09-30,倪少娜,个人,A股,4199300,1.16%,不变,--,000554
2016-09-30,白婷婷,个人,A股,3800000,1.05%,-953614,-20.06%,000554
2016-09-30,董学亮,个人,A股,2322000,0.64%,新进,--,000554
2016-09-30,李红,个人,A股,2043751,0.56%,新进,--,000554
2017-09-30,韩赓,个人,A股,3305000,0.37%,810000,32.46%,000555
2017-09-30,贺胜龙,个人,A股,2830000,0.32%,不变,--,000555
2017-09-30,吕强,个人,A股,1287813,0.15%,不变,--,000555
2017-09-30,王海涛,个人,A股,1011315,0.11%,不变,--,000555
2017-06-30,贺胜龙,个人,A股,2830000,0.32%,不变,--,000555
2017-06-30,韩赓,个人,A股,2495000,0.28%,新进,--,000555
2017-06-30,吕强,个人,A股,1287813,0.15%,不变,--,000555
2017-06-30,王海涛,个人,A股,1011315,0.11%,新进,--,000555
2017-03-31,贺胜龙,个人,A股,2830000,0.32%,-5000,-0.18%,000555
2017-03-31,吕强,个人,A股,1287813,0.15%,新进,--,000555
2016-12-31,贺胜龙,个人,A股,2835000,1.10%,55000,1.98%,000555
2016-12-31,赵纪焕,个人,A股,1000000,0.39%,-55200,-5.23%,000555
2016-09-30,贺胜龙,个人,A股,2780000,1.08%,-650000,-18.95%,000555
2016-09-30,陈林东,个人,A股,1394521,0.54%,新进,--,000555
2016-09-30,赵纪焕,个人,A股,1055200,0.41%,新进,--,000555
2017-09-30,徐开东,个人,A股,7135412,1.22%,2186761,44.19%,000557
2017-09-30,郑毅仁,个人,A股,5625000,0.96%,10000,0.18%,000557
2017-09-30,江游,个人,A股,4047250,0.69%,-29018,-0.71%,000557
2017-09-30,郑慧霞,个人,A股,3430000,0.59%,80000,2.39%,000557
2017-09-30,刘锦英,个人,A股,3423800,0.59%,2900,0.08%,000557
2017-09-30,方志嘉,个人,A股,3115000,0.53%,10000,0.32%,000557
2017-09-30,郑淑英,个人,A股,2365000,0.40%,35000,1.50%,000557
2017-09-30,刘兴宏,个人,A股,2355960,0.40%,新进,--,000557
2017-09-30,孙钢建,个人,A股,2280278,0.39%,不变,--,000557
2017-09-30,侯秀兰,个人,A股,2250000,0.38%,不变,--,000557
2017-06-30,郑毅仁,个人,A股,5615000,0.96%,10000,0.18%,000557
2017-06-30,徐开东,个人,A股,4948651,0.85%,2217351,81.18%,000557
2017-06-30,江游,个人,A股,4076268,0.70%,146,0.00%,000557
2017-06-30,刘锦英,个人,A股,3420900,0.58%,新进,--,000557
2017-06-30,郑慧霞,个人,A股,3350000,0.57%,7000,0.21%,000557
2017-06-30,方志嘉,个人,A股,3105000,0.53%,15000,0.49%,000557
2017-06-30,郑淑英,个人,A股,2330000,0.40%,20000,0.87%,000557
2017-06-30,孙钢建,个人,A股,2280278,0.39%,不变,--,000557
2017-06-30,侯秀兰,个人,A股,2250000,0.38%,新进,--,000557
2017-06-30,洪如玉,个人,A股,2123900,0.36%,新进,--,000557
2017-03-31,郑毅仁,个人,A股,5605000,0.96%,2950000,111.11%,000557
2017-03-31,江游,个人,A股,4076122,0.70%,68,0.00%,000557
2017-03-31,郑慧霞,个人,A股,3343000,0.57%,新进,--,000557
2017-03-31,方志嘉,个人,A股,3090000,0.53%,新进,--,000557
2017-03-31,徐开东,个人,A股,2731300,0.47%,580300,26.98%,000557
2017-03-31,赵强,个人,A股,2653167,0.45%,新进,--,000557
2017-03-31,黎晓丽,个人,A股,2589232,0.44%,新进,--,000557
2017-03-31,郑淑英,个人,A股,2310000,0.39%,10000,0.43%,000557
2017-03-31,孙钢建,个人,A股,2280278,0.39%,-19680,-0.86%,000557
2017-03-31,候秀兰,个人,A股,2210000,0.38%,新进,--,000557
2016-12-31,江游,个人,A股,4076054,0.70%,787603,23.95%,000557
2016-12-31,王桂花,个人,A股,3515371,0.60%,新进,--,000557
2016-12-31,郑毅仁,个人,A股,2655000,0.45%,新进,--,000557
2016-12-31,侯秀兰,个人,A股,2479350,0.42%,291350,13.32%,000557
2016-12-31,郑淑英,个人,A股,2300000,0.39%,新进,--,000557
2016-12-31,孙钢建,个人,A股,2299958,0.39%,新进,--,000557
2016-12-31,徐开东,个人,A股,2151000,0.37%,新进,--,000557
2016-12-31,覃豆,个人,A股,2033600,0.35%,新进,--,000557
2016-09-30,江游,个人,A股,3288451,0.56%,1414951,75.52%,000557
2016-09-30,白欣,个人,A股,3028400,0.52%,399134,15.18%,000557
2016-09-30,侯秀兰,个人,A股,2188000,0.37%,236800,12.14%,000557
2016-09-30,马亦然,个人,A股,2020000,0.35%,-35200,-1.71%,000557
2016-09-30,陈宏宇,个人,A股,1762900,0.30%,不变,--,000557
2016-09-30,陈红娟,个人,A股,1727643,0.30%,不变,--,000557
2017-09-30,高靖娜,个人,A股,79380000,6.16%,不变,--,000558
2017-09-30,邢宏图,个人,A股,3825600,0.30%,1201200,45.77%,000558
2017-09-30,蔡迪敏,个人,A股,3724720,0.29%,不变,--,000558
2017-09-30,须佳雯,个人,A股,3712375,0.29%,不变,--,000558
2017-09-30,林仙琴,个人,A股,2744866,0.21%,不变,--,000558
2017-09-30,徐美琴,个人,A股,2143890,0.17%,-791500,-26.96%,000558
2017-06-30,高靖娜,个人,A股,79380000,6.92%,26460000,50.00%,000558
2017-06-30,蔡迪敏,个人,A股,3724720,0.32%,1241573,50.00%,000558
2017-06-30,须佳雯,个人,A股,3712375,0.32%,1237458,50.00%,000558
2017-06-30,徐美琴,个人,A股,2935390,0.26%,新进,--,000558
2017-06-30,林仙琴,个人,A股,2744866,0.24%,新进,--,000558
2017-06-30,邢宏图,个人,A股,2624400,0.23%,新进,--,000558
2017-03-31,高靖娜,个人,A股,52920000,6.92%,不变,--,000558
2017-03-31,刘玮巍,个人,A股,2939300,0.38%,不变,--,000558
2017-03-31,蔡迪敏,个人,A股,2483147,0.32%,不变,--,000558
2017-03-31,须佳雯,个人,A股,2474917,0.32%,不变,--,000558
2016-12-31,高靖娜,个人,A股,52920000,6.92%,不变,--,000558
2016-12-31,刘玮巍,个人,A股,2939300,0.38%,不变,--,000558
2016-12-31,蔡迪敏,个人,A股,2483147,0.32%,不变,--,000558
2016-12-31,须佳雯,个人,A股,2474917,0.32%,不变,--,000558
2016-09-30,高靖娜,个人,A股,52920000,6.92%,不变,--,000558
2016-09-30,刘玮巍,个人,A股,2939300,0.38%,新进,--,000558
2016-09-30,蔡迪敏,个人,A股,2483147,0.32%,不变,--,000558
2016-09-30,须佳雯,个人,A股,2474917,0.32%,新进,--,000558
2017-09-30,张阔,个人,A股,6556440,0.24%,不变,--,000559
2017-09-30,施玮,个人,A股,6460237,0.24%,新进,--,000559
2017-06-30,张阔,个人,A股,6556440,0.24%,1092740,20.00%,000559
2017-03-31,张阔,个人,A股,5463700,0.24%,新进,--,000559
2016-12-31,施玮,个人,A股,5383531,0.24%,新进,--,000559
2016-09-30,朱德宏,个人,A股,5660400,0.25%,-3503691,-38.23%,000559
2017-09-30,谢勇,个人,A股,25000000,7.33%,不变,--,000560
2017-06-30,谢勇,个人,A股,25000000,7.33%,不变,--,000560
2017-03-31,谢勇,个人,A股,25000000,6.01%,新进,--,000560
2017-03-31,王秋鸿,个人,A股,2601219,0.63%,不变,--,000560
2017-03-31,王乐芸,个人,A股,2464343,0.59%,3800,0.15%,000560
2017-03-31,刘超,个人,A股,2280900,0.55%,新进,--,000560
2017-03-31,李青,个人,A股,1991571,0.48%,新进,--,000560
2017-03-31,何志坚,个人,A股,1788020,0.43%,新进,--,000560
2017-03-31,张克平,个人,A股,1750024,0.42%,新进,--,000560
2016-12-31,何昌珍,个人,A股,9400000,2.26%,不变,--,000560
2016-12-31,陈智明,个人,A股,2930000,0.70%,不变,--,000560
2016-12-31,王秋鸿,个人,A股,2601219,0.63%,不变,--,000560
2016-12-31,王乐芸,个人,A股,2460543,0.59%,不变,--,000560
2016-09-30,何昌珍,个人,A股,9400000,2.98%,不变,--,000560
2016-09-30,陈智明,个人,A股,2930000,0.93%,-30000,-1.01%,000560
2016-09-30,王秋鸿,个人,A股,2601219,0.82%,28000,1.09%,000560
2016-09-30,王乐芸,个人,A股,2460543,0.78%,33300,1.37%,000560
2017-09-30,邵红珊,个人,A股,4352600,0.73%,443700,11.35%,000561
2017-06-30,邵红珊,个人,A股,3908900,0.66%,新进,--,000561
2017-06-30,刘远超,个人,A股,1412700,0.24%,125200,9.72%,000561
2017-06-30,沈邓杰,个人,A股,1300600,0.22%,不变,--,000561
2017-03-31,沈邓杰,个人,A股,1300600,0.22%,新进,--,000561
2017-03-31,刘远超,个人,A股,1287500,0.22%,新进,--,000561
2016-12-31,胡冰,个人,A股,2950000,0.50%,新进,--,000561
2016-12-31,张惠丰,个人,A股,2002900,0.34%,不变,--,000561
2016-12-31,刘风玲,个人,A股,1758517,0.30%,新进,--,000561
2016-09-30,张惠丰,个人,A股,2002900,0.34%,不变,--,000561
2016-09-30,梁秀华,个人,A股,1598000,0.27%,82300,5.43%,000561
2016-09-30,李天生,个人,A股,9399200,0.39%,新进,--,000563
2017-09-30,安俊明,个人,A股,8490000,1.33%,不变,--,000564
2017-09-30,李勇,个人,A股,4796220,0.75%,109700,2.34%,000564
2017-09-30,吴伟,个人,A股,3709394,0.58%,441100,13.50%,000564
2017-09-30,潘卫清,个人,A股,3300370,0.52%,不变,--,000564
2017-09-30,郑林,个人,A股,2913039,0.46%,1400,0.05%,000564
2017-09-30,丁燕芳,个人,A股,2462000,0.39%,新进,--,000564
2017-06-30,安俊明,个人,A股,8490000,1.41%,不变,--,000564
2017-06-30,李勇,个人,A股,4686520,0.78%,378388,8.78%,000564
2017-06-30,潘卫清,个人,A股,3300370,0.55%,不变,--,000564
2017-06-30,吴伟,个人,A股,3268294,0.54%,88700,2.79%,000564
2017-06-30,郑林,个人,A股,2911639,0.48%,新进,--,000564
2017-03-31,安俊明,个人,A股,8490000,1.63%,-566,-0.01%,000564
2017-03-31,李勇,个人,A股,4308132,0.83%,212600,5.19%,000564
2017-03-31,潘卫清,个人,A股,3300370,0.63%,-469899,-12.46%,000564
2017-03-31,吴伟,个人,A股,3179594,0.61%,新进,--,000564
2017-03-31,丁燕芳,个人,A股,2410000,0.46%,10000,0.42%,000564
2016-12-31,安俊明,个人,A股,8490566,1.63%,不变,--,000564
2016-12-31,李勇,个人,A股,4095532,0.79%,595700,17.02%,000564
2016-12-31,潘卫清,个人,A股,3770269,0.72%,745269,24.64%,000564
2016-12-31,陈国军,个人,A股,2425100,0.47%,新进,--,000564
2016-12-31,丁燕芳,个人,A股,2400000,0.46%,新进,--,000564
2016-09-30,安俊明,个人,A股,8490566,1.63%,新进,--,000564
2016-09-30,李勇,个人,A股,3499832,0.67%,2073988,145.46%,000564
2016-09-30,潘卫清,个人,A股,3025000,0.58%,-258500,-7.87%,000564
2017-09-30,谢慧明,个人,A股,2340800,0.54%,新进,--,000565
2017-09-30,邹森鹏,个人,A股,2340000,0.54%,80000,3.54%,000565
2017-09-30,汪新文,个人,A股,2011574,0.46%,不变,--,000565
2017-09-30,凌朝明,个人,A股,1818808,0.42%,新进,--,000565
2017-09-30,林尚德,个人,A股,1308399,0.30%,408399,45.38%,000565
2017-09-30,徐一炜,个人,A股,1156200,0.27%,新进,--,000565
2017-09-30,昌孝润,个人,A股,949550,0.22%,-22900,-2.35%,000565
2017-09-30,邓潮泉,个人,A股,887600,0.20%,新进,--,000565
2017-06-30,邹森鹏,个人,A股,2260000,0.52%,350000,18.32%,000565
2017-06-30,汪新文,个人,A股,2011574,0.46%,674098,50.40%,000565
2017-06-30,李华广,个人,A股,1032310,0.24%,新进,--,000565
2017-06-30,赵祖新,个人,A股,1006600,0.23%,不变,--,000565
2017-06-30,昌孝润,个人,A股,972450,0.22%,新进,--,000565
2017-06-30,谈承军,个人,A股,919778,0.21%,新进,--,000565
2017-06-30,林尚德,个人,A股,900000,0.21%,新进,--,000565
2017-06-30,施雪奎,个人,A股,869100,0.20%,新进,--,000565
2017-03-31,邹森鹏,个人,A股,1910000,0.44%,-3200,-0.17%,000565
2017-03-31,汪新文,个人,A股,1337476,0.31%,不变,--,000565
2017-03-31,赵祖新,个人,A股,1006600,0.23%,新进,--,000565
2017-03-31,欧阳建昕,个人,A股,990000,0.23%,新进,--,000565
2016-12-31,邹森鹏,个人,A股,1913200,0.44%,844700,79.05%,000565
2016-12-31,李葛卫,个人,A股,1650000,0.38%,新进,--,000565
2016-12-31,汪新文,个人,A股,1337476,0.31%,新进,--,000565
2016-09-30,邹森鹏,个人,A股,1068500,0.25%,不变,--,000565
2016-09-30,陈新,个人,A股,1000000,0.23%,不变,--,000565
2016-09-30,蒋莉,个人,A股,1000000,0.23%,不变,--,000565
2016-09-30,赵欣,个人,A股,961350,0.22%,不变,--,000565
2016-09-30,任欣,个人,A股,960000,0.22%,不变,--,000565
2016-09-30,胡洪安,个人,A股,838770,0.19%,不变,--,000565
2016-09-30,昌孝润,个人,A股,825367,0.19%,不变,--,000565
2016-09-30,罗家兵,个人,A股,821000,0.19%,不变,--,000565
2017-06-30,陈茂仁,个人,A股,4696234,0.48%,新进,--,000566
2017-03-31,赵涌,个人,A股,7150000,0.72%,新进,--,000566
2017-09-30,胡景,个人,A股,3056111,2.03%,新进,--,000567
2017-06-30,蒋君萍,个人,A股,1437000,0.96%,新进,--,000567
2016-12-31,陈旭东,个人,A股,2863188,1.90%,-1500000,-34.38%,000567
2016-09-30,陈旭东,个人,A股,4363188,2.90%,-845901,-16.24%,000567
2017-09-30,雷平安,个人,A股,4093998,0.73%,新进,--,000570
2017-09-30,彭军,个人,A股,1800000,0.32%,新进,--,000570
2017-09-30,黄国良,个人,B股,1528891,0.27%,不变,--,000570
2017-09-30,梁年有,个人,A股,1362652,0.24%,新进,--,000570
2017-09-30,黎穗南,个人,B股,1338700,0.24%,新进,--,000570
2017-06-30,黄国良,个人,B股,1528891,0.27%,不变,--,000570
2017-03-31,黄国良,个人,B股,1528891,0.27%,新进,--,000570
2016-12-31,李良,个人,A股,1827445,0.33%,新进,--,000570
2016-09-30,黄李厚,个人,A股,1949700,0.35%,不变,--,000570
2016-09-30,杜润生,个人,A股,1758186,0.31%,新进,--,000570
2016-09-30,李敏,个人,A股,1618950,0.29%,不变,--,000570
2017-09-30,吕良丰,个人,A股,7654970,0.95%,-1707987,-18.24%,000571
2017-09-30,彭浩,个人,A股,7313114,0.91%,不变,--,000571
2017-09-30,刘黎明,个人,A股,5405257,0.67%,新进,--,000571
2017-09-30,赵赢,个人,A股,4380000,0.54%,新进,--,000571
2017-06-30,连若晹,个人,A股,10000000,1.24%,新进,--,000571
2017-06-30,吕良丰,个人,A股,9362957,1.16%,-4218916,-31.06%,000571
2017-06-30,刘锐,个人,A股,8030000,1.00%,新进,--,000571
2017-06-30,彭浩,个人,A股,7313114,0.91%,110000,1.53%,000571
2017-06-30,邱阳,个人,A股,6068022,0.75%,新进,--,000571
2017-03-31,吕良丰,个人,A股,13581873,1.85%,-185500,-1.35%,000571
2017-03-31,彭浩,个人,A股,7203114,0.98%,10000,0.14%,000571
2017-03-31,赵赢,个人,A股,4380000,0.60%,不变,--,000571
2017-03-31,张广信,个人,A股,3387347,0.46%,不变,--,000571
2017-03-31,刘黎明,个人,A股,3324457,0.45%,109400,3.40%,000571
2016-12-31,吕良丰,个人,A股,13767373,1.87%,-223600,-1.60%,000571
2016-12-31,彭浩,个人,A股,7193114,0.98%,-90000,-1.24%,000571
2016-12-31,赵赢,个人,A股,4380000,0.60%,不变,--,000571
2016-12-31,张广信,个人,A股,3387347,0.46%,-207158,-5.76%,000571
2016-12-31,刘黎明,个人,A股,3215057,0.44%,新进,--,000571
2016-09-30,吕良丰,个人,A股,13990973,1.90%,429869,3.17%,000571
2016-09-30,彭浩,个人,A股,7283114,0.99%,不变,--,000571
2016-09-30,赵赢,个人,A股,4380000,0.60%,不变,--,000571
2016-09-30,张广信,个人,A股,3594505,0.49%,43700,1.23%,000571
2016-09-30,许善芬,个人,A股,2524300,0.34%,新进,--,000571
2016-12-31,洪泽君,个人,A股,14000000,0.85%,新进,--,000572
2016-09-30,黄永耀,个人,A股,6242156,0.38%,新进,--,000572
2017-09-30,易敏珠,个人,A股,7309862,1.17%,606177,9.04%,000573
2017-09-30,高云,个人,A股,4049900,0.65%,120000,3.05%,000573
2017-09-30,蒋锡才,个人,A股,4021131,0.65%,34231,0.86%,000573
2017-09-30,巫德元,个人,A股,3187500,0.51%,新进,--,000573
2017-09-30,张兰凤,个人,A股,2997768,0.48%,新进,--,000573
2017-06-30,易敏珠,个人,A股,6703685,1.08%,-23790,-0.35%,000573
2017-06-30,蒋锡才,个人,A股,3986900,0.64%,新进,--,000573
2017-06-30,高云,个人,A股,3929900,0.63%,537800,15.85%,000573
2017-06-30,刘云,个人,A股,3842691,0.62%,-128000,-3.22%,000573
2017-06-30,施云刚,个人,A股,3431100,0.55%,不变,--,000573
2017-03-31,易敏珠,个人,A股,6727475,1.08%,1158700,20.81%,000573
2017-03-31,刘云,个人,A股,3970691,0.64%,新进,--,000573
2017-03-31,施云刚,个人,A股,3431100,0.55%,193400,5.97%,000573
2017-03-31,汪勇,个人,A股,3412200,0.55%,新进,--,000573
2017-03-31,高云,个人,A股,3392100,0.55%,新进,--,000573
2016-12-31,易敏珠,个人,A股,5568775,0.90%,新进,--,000573
2016-12-31,付波,个人,A股,4650000,0.75%,新进,--,000573
2016-12-31,周希俭,个人,A股,3240000,0.52%,新进,--,000573
2016-12-31,施云刚,个人,A股,3237700,0.52%,新进,--,000573
2016-09-30,唐军,个人,A股,6618599,1.06%,新进,--,000573
2016-09-30,张碧华,个人,A股,5161518,0.83%,新进,--,000573
2016-09-30,王安全,个人,A股,4105200,0.66%,新进,--,000573
2017-09-30,罗双跃,个人,A股,12984131,2.99%,-1929367,-12.94%,000576
2017-06-30,罗双跃,个人,A股,14913498,3.44%,-1259617,-7.79%,000576
2017-03-31,罗双跃,个人,A股,16173115,3.73%,-7130000,-30.60%,000576
2016-12-31,罗双跃,个人,A股,23303115,5.37%,不变,--,000576
2016-12-31,张华光,个人,A股,2893582,0.67%,-40000,-1.36%,000576
2016-12-31,胡成中,个人,A股,2112500,0.49%,不变,--,000576
2016-12-31,吴庆,个人,A股,1862394,0.43%,-5300,-0.28%,000576
2016-09-30,罗双跃,个人,A股,23303115,5.37%,不变,--,000576
2016-09-30,张华光,个人,A股,2933582,0.68%,4736,0.16%,000576
2016-09-30,胡成中,个人,A股,2112500,0.49%,不变,--,000576
2016-09-30,吴庆,个人,A股,1867694,0.43%,-2000,-0.11%,000576
2017-12-31,彭逢兰,个人,A股,1386100,0.53%,新进,--,000582
2017-09-30,陈喻华,个人,A股,2088369,0.79%,新进,--,000582
2017-09-30,虞茂椽,个人,A股,1340870,0.51%,不变,--,000582
2017-06-30,虞茂椽,个人,A股,1340870,0.51%,新进,--,000582
2017-06-30,罗亚平,个人,A股,1317470,0.50%,新进,--,000582
2017-06-30,彭逢兰,个人,A股,926220,0.35%,新进,--,000582
2016-12-31,赵博通,个人,A股,565961,0.28%,新进,--,000582
2017-09-30,李昊,个人,A股,7110908,1.16%,不变,--,000584
2017-09-30,林培,个人,A股,6900000,1.13%,不变,--,000584
2017-09-30,王伟,个人,A股,3287700,0.54%,新进,--,000584
2017-09-30,李萍,个人,A股,2760000,0.45%,新进,--,000584
2017-06-30,李昊,个人,A股,7110908,1.16%,新进,--,000584
2017-06-30,林培,个人,A股,6900000,1.13%,111164,1.64%,000584
2017-06-30,胡依兰,个人,A股,3819800,0.62%,新进,--,000584
2017-06-30,胡钧,个人,A股,3390100,0.55%,-103500,-2.96%,000584
2017-06-30,姜娟,个人,A股,2955100,0.48%,新进,--,000584
2017-03-31,林培,个人,A股,6788836,1.11%,不变,--,000584
2017-03-31,胡钧,个人,A股,3493600,0.57%,不变,--,000584
2017-03-31,王伟,个人,A股,2854400,0.47%,-550267,-16.16%,000584
2017-03-31,李萍,个人,A股,2634166,0.43%,新进,--,000584
2016-12-31,林培,个人,A股,6788836,1.11%,不变,--,000584
2016-12-31,胡钧,个人,A股,3493600,0.57%,不变,--,000584
2016-12-31,王伟,个人,A股,3404667,0.56%,不变,--,000584
2016-12-31,冯玲,个人,A股,2552400,0.42%,不变,--,000584
2016-09-30,林培,个人,A股,6788836,1.11%,1614500,31.20%,000584
2016-09-30,胡钧,个人,A股,3493600,0.57%,95300,2.80%,000584
2016-09-30,王伟,个人,A股,3404667,0.56%,3867,0.11%,000584
2016-09-30,冯玲,个人,A股,2552400,0.42%,不变,--,000584
2017-09-30,杨琴秀,个人,A股,27955752,3.22%,不变,--,000585
2017-09-30,李震,个人,A股,4824334,0.56%,新进,--,000585
2017-09-30,史宇波,个人,A股,3754300,0.43%,不变,--,000585
2017-09-30,吴国琳,个人,A股,3041467,0.35%,新进,--,000585
2017-09-30,胡岚,个人,A股,2834990,0.33%,新进,--,000585
2017-09-30,徐开东,个人,A股,2431359,0.28%,178359,7.92%,000585
2017-06-30,杨琴秀,个人,A股,27955752,3.22%,新进,--,000585
2017-06-30,田亚,个人,A股,6423600,0.74%,-6176400,-49.02%,000585
2017-06-30,史宇波,个人,A股,3754300,0.43%,402000,11.99%,000585
2017-06-30,徐开东,个人,A股,2253000,0.26%,-1747000,-43.68%,000585
2017-06-30,胡立,个人,A股,2166760,0.25%,新进,--,000585
2017-03-31,田亚,个人,A股,12600000,1.45%,261600,2.12%,000585
2017-03-31,沈素英,个人,A股,9000000,1.04%,3500000,63.64%,000585
2017-03-31,程伟,个人,A股,4400000,0.51%,500000,12.82%,000585
2017-03-31,徐开东,个人,A股,4000000,0.46%,-4000000,-50.00%,000585
2017-03-31,史宇波,个人,A股,3352300,0.39%,70400,2.15%,000585
2017-03-31,任向敏,个人,A股,2200000,0.25%,新进,--,000585
2016-12-31,田亚,个人,A股,12338400,1.42%,新进,--,000585
2016-12-31,徐开东,个人,A股,8000000,0.92%,不变,--,000585
2016-12-31,沈素英,个人,A股,5500000,0.63%,新进,--,000585
2016-12-31,吴美青,个人,A股,4181492,0.48%,新进,--,000585
2016-12-31,程伟,个人,A股,3900000,0.45%,新进,--,000585
2016-12-31,史宇波,个人,A股,3281900,0.38%,20000,0.61%,000585
2016-12-31,任向东,个人,A股,2580000,0.30%,新进,--,000585
2016-09-30,徐开东,个人,A股,8000000,0.92%,不变,--,000585
2016-09-30,史宇波,个人,A股,3261900,0.38%,-788500,-19.47%,000585
2016-09-30,胡立,个人,A股,2166760,0.25%,不变,--,000585
2016-09-30,肖玉敏,个人,A股,1998888,0.23%,新进,--,000585
2017-09-30,杨宁恩,个人,A股,9194373,4.75%,-50000,-0.54%,000586
2017-09-30,袁永刚,个人,A股,3930587,2.03%,不变,--,000586
2017-06-30,杨宁恩,个人,A股,9244373,4.78%,590042,6.82%,000586
2017-06-30,袁永刚,个人,A股,3930587,2.03%,不变,--,000586
2017-03-31,杨宁恩,个人,A股,8654331,4.47%,-621942,-6.70%,000586
2017-03-31,袁永刚,个人,A股,3930587,2.03%,不变,--,000586
2016-12-31,杨宁恩,个人,A股,9276273,4.80%,-1659800,-15.18%,000586
2016-12-31,袁永刚,个人,A股,3930587,2.03%,新进,--,000586
2016-09-30,杨宁恩,个人,A股,10936073,5.65%,不变,--,000586
2016-09-30,周金花,个人,A股,2456943,1.27%,新进,--,000586
2017-09-30,许北华,个人,A股,12132948,1.05%,5892424,94.42%,000587
2017-09-30,池连安,个人,A股,8840100,0.77%,4441300,100.97%,000587
2017-09-30,魏惠玲,个人,A股,8161702,0.71%,新进,--,000587
2017-09-30,许萍,个人,A股,6746836,0.59%,新进,--,000587
2017-06-30,许北华,个人,A股,6240524,1.08%,165000,2.72%,000587
2017-06-30,池连安,个人,A股,4398800,0.76%,103200,2.40%,000587
2017-03-31,许北华,个人,A股,6075524,1.05%,不变,--,000587
2017-03-31,池连安,个人,A股,4295600,0.75%,新进,--,000587
2016-12-31,施彩练,个人,A股,8131400,1.41%,-2134400,-20.79%,000587
2016-12-31,许北华,个人,A股,6075524,1.05%,-3144818,-34.11%,000587
2016-12-31,梁璐,个人,A股,4673000,0.81%,新进,--,000587
2016-09-30,施彩练,个人,A股,10265800,1.84%,不变,--,000587
2016-09-30,许北华,个人,A股,9220342,1.66%,不变,--,000587
2016-09-30,池连安,个人,A股,4200000,0.75%,新进,--,000587
2017-09-30,刘昌,个人,A股,4546902,0.59%,-104300,-2.24%,000589
2017-09-30,王枭,个人,A股,3215180,0.41%,-528620,-14.12%,000589
2017-09-30,林美惠,个人,A股,2600000,0.34%,新进,--,000589
2017-09-30,宋传苓,个人,A股,2400000,0.31%,新进,--,000589
