日期,股东名称,股东性质,股份类型,持股数(股),占总流通股本持股比例,增减(股),变动比例,code
2017-09-30,汪国新,个人,A股,1436407,1.73%,106368,8.00%,000004
2017-09-30,谢林波,个人,A股,1324247,1.60%,222047,20.15%,000004
2017-09-30,周建新,个人,A股,1072712,1.29%,不变,--,000004
2017-09-30,林丹娜,个人,A股,20125613,2.12%,不变,--,000005
2017-09-30,陈子云,个人,A股,4369200,0.46%,新进,--,000005
2017-09-30,禹宙,个人,A股,3660000,0.38%,新进,--,000005
2017-09-30,聂智,个人,A股,7104876,0.53%,5000,0.07%,000006
2017-09-30,张德锋,个人,A股,6314900,0.47%,532600,9.21%,000006
2017-09-30,廖晔,个人,A股,4993300,0.37%,82900,1.69%,000006
2017-09-30,曾运龙,个人,A股,4518800,0.34%,30000,0.67%,000006
2017-09-30,陈卓婷,个人,A股,13493872,4.37%,不变,--,000007
2017-09-30,王昕,个人,A股,6298001,2.04%,新进,--,000007
2017-09-30,陆炜,个人,A股,3271950,1.06%,不变,--,000007
2017-09-30,李颀,个人,A股,36162700,1.82%,-20000,-0.06%,000008
2017-09-30,欧阳学荣,个人,A股,14907933,0.70%,不变,--,000009
2017-09-30,吴海涛,个人,A股,12783229,0.60%,-15000,-0.12%,000009
2017-09-30,聂仁和,个人,A股,10223728,0.48%,不变,--,000009
2017-09-30,曾静,个人,A股,8518819,0.40%,不变,--,000009
2017-09-30,朱棣铭,个人,A股,6000000,0.28%,不变,--,000009
2017-09-30,罗学军,个人,A股,4855047,0.93%,不变,--,000010
2017-09-30,杜歆晔,个人,A股,3880800,1.59%,不变,--,000011
2017-09-30,周群,个人,A股,3115450,1.28%,不变,--,000011
2017-09-30,杜允丰,个人,A股,2323000,0.95%,不变,--,000011
2017-09-30,杨耀初,个人,B股,1410620,0.58%,90000,6.81%,000011
2017-09-30,麦富容,个人,B股,1330500,0.55%,-54300,-3.92%,000011
2017-09-30,高远雄,个人,A股,1140401,0.47%,新进,--,000011
2017-09-30,陈丽英,个人,B股,1102051,0.45%,不变,--,000011
2017-09-30,李京,个人,B股,962440,0.40%,不变,--,000011
2017-09-30,曹益凡,个人,B股,848000,0.35%,新进,--,000011
2017-09-30,陈贺香,个人,A股,2388501,1.18%,不变,--,000014
2017-09-30,张丽萍,个人,A股,1440000,0.71%,不变,--,000014
2017-09-30,钟晓玲,个人,A股,1377001,0.68%,新进,--,000014
2017-09-30,钟以隆,个人,A股,988000,0.49%,新进,--,000014
2017-09-30,王磊,个人,A股,37406339,1.55%,新进,--,000016
2017-09-30,NAM NGAI,个人,B股,22240040,0.92%,-295200,-1.31%,000016
2017-09-30,李惠丽,个人,B股,3891124,0.71%,不变,--,000017
2017-09-30,黄怀岸,个人,A股,10115000,0.99%,不变,--,000018
2017-09-30,蔡宇,个人,A股,9000000,0.88%,新进,--,000018
2017-09-30,孙慧明,个人,B股,3403262,0.73%,不变,--,000019
2017-09-30,胡祥主,个人,A股,1910000,0.41%,150000,8.52%,000019
2017-09-30,张岳,个人,A股,1392077,0.30%,1270,0.09%,000019
2017-09-30,李倩,个人,A股,1282678,0.27%,-149700,-10.45%,000019
2017-09-30,许砚慧,个人,A股,1072500,0.23%,不变,--,000019
2017-09-30,叶秀霞,个人,A股,1000230,0.21%,不变,--,000019
2017-09-30,徐东冬,个人,A股,1690307,0.60%,不变,--,000020
2017-09-30,周红兵,个人,A股,1221800,0.43%,不变,--,000020
2017-09-30,钟佳潮,个人,A股,1096300,0.39%,27800,2.60%,000020
2017-09-30,LI SHERYN ZHAN MING,个人,B股,1072802,0.38%,新进,--,000020
2017-09-30,柴长茂,个人,A股,21659397,1.47%,200,0.00%,000021
2017-09-30,周蓉,个人,A股,8000000,0.54%,181642,2.32%,000021
2017-09-30,郝双刚,个人,A股,3812001,0.26%,-72900,-1.88%,000021
2017-09-30,刘健楠,个人,A股,3000000,0.20%,-300000,-9.09%,000021
2017-09-30,李光鑫,个人,B股,761161,0.35%,不变,--,000025
2017-09-30,翁政文,个人,B股,574528,0.26%,-5000,-0.86%,000025
2017-09-30,何杏,个人,B股,300100,0.14%,不变,--,000025
2017-09-30,黄楚云,个人,B股,266500,0.12%,不变,--,000025
2017-09-30,曾惠明,个人,B股,250000,0.11%,-20000,-7.41%,000025
2017-09-30,徐美女,个人,A股,237400,0.11%,新进,--,000025
2017-09-30,林凤芳,个人,B股,216933,0.10%,不变,--,000025
2017-09-30,杨祖贵,个人,A股,7254069,1.65%,1352400,22.92%,000026
2017-09-30,朱武广,个人,A股,19013825,0.48%,540000,2.92%,000027
2017-09-30,卢志高,个人,A股,3246949,0.32%,不变,--,000029
2017-09-30,谭石庆,个人,A股,1286701,0.13%,不变,--,000029
2017-09-30,杨水莲,个人,A股,1273700,0.13%,不变,--,000029
2017-09-30,杨剑雄,个人,B股,1255750,0.12%,不变,--,000029
2017-09-30,彭伟,个人,A股,1129082,0.11%,不变,--,000029
2017-09-30,吴浩源,个人,B股,1109300,0.11%,不变,--,000029
2017-09-30,叶凡,个人,A股,6682188,0.52%,不变,--,000030
2017-09-30,洪卓斌,个人,A股,16703554,0.92%,831100,5.24%,000031
2017-09-30,张忱业,个人,A股,6605502,0.36%,不变,--,000031
2017-09-30,吕春玲,个人,A股,4622500,0.25%,不变,--,000031
2017-09-30,吴安,个人,A股,3700000,1.32%,不变,--,000032
2017-09-30,吴绮绯,个人,A股,2547300,0.91%,不变,--,000032
2017-09-30,郑礼灿,个人,A股,3394493,0.95%,不变,--,000034
2017-09-30,王维莉,个人,A股,2842034,0.79%,新进,--,000034
2017-09-30,江天,个人,A股,2787362,0.78%,-3212728,-53.54%,000034
2017-09-30,严圣军,个人,A股,23475307,2.01%,不变,--,000035
2017-09-30,吴强,个人,A股,8327600,0.71%,1051800,14.46%,000035
2017-09-30,陈薇,个人,A股,6500000,0.56%,-300000,-4.41%,000035
2017-09-30,于平,个人,A股,23136519,2.04%,11214000,94.06%,000036
2017-09-30,樊卫国,个人,A股,7596414,0.67%,不变,--,000036
2017-09-30,樊勇,个人,A股,5309270,0.47%,239604,4.73%,000036
2017-09-30,王志丰,个人,A股,4800000,0.42%,新进,--,000036
2017-09-30,陈英霞,个人,A股,3358700,0.30%,新进,--,000036
2017-09-30,曾颖,个人,B股,6331656,1.05%,282586,4.67%,000037
2017-09-30,张和平,个人,"A股,B股",5025900,0.83%,不变,--,000037
2017-09-30,李宝琴,个人,"A股,B股",3994100,0.66%,435586,12.24%,000037
2017-09-30,曹林芳,个人,A股,8766306,11.11%,3287364,60.00%,000038
2017-09-30,罗承,个人,A股,1618413,2.05%,606905,60.00%,000038
2017-09-30,蒋阳俊,个人,A股,1352837,1.72%,507314,60.00%,000038
2017-09-30,李勇,个人,A股,493633,0.63%,185112,60.00%,000038
2017-09-30,曾建平,个人,A股,462633,0.59%,173487,60.00%,000038
2017-09-30,高晖,个人,A股,4422000,0.66%,不变,--,000043
2017-09-30,王倩倩,个人,A股,3749300,0.56%,新进,--,000043
2017-09-30,王文霞,个人,A股,3330000,0.50%,不变,--,000043
2017-09-30,孙慧明,个人,B股,2396826,0.47%,-63400,-2.58%,000045
2017-09-30,刘东霞,个人,A股,1523900,0.30%,新进,--,000045
2017-09-30,苏运泽,个人,A股,1401500,0.28%,441500,45.99%,000045
2017-09-30,朱烨,个人,A股,1331945,0.26%,不变,--,000045
2017-09-30,王民仓,个人,A股,1280236,0.25%,-97000,-7.04%,000045
2017-09-30,洪帆,个人,A股,972400,0.19%,19800,2.08%,000045
2017-09-30,苏志芬,个人,A股,965200,0.19%,新进,--,000045
2017-09-30,黄木顺,个人,A股,140080889,2.75%,180800,0.13%,000046
2017-09-30,王世忱,个人,A股,8844680,2.29%,不变,--,000048
2017-09-30,罗豫西,个人,A股,8478326,2.20%,不变,--,000048
2017-09-30,高春雷,个人,A股,8447694,2.19%,不变,--,000048
2017-09-30,徐国义,个人,A股,9766705,0.70%,新进,--,000050
2017-09-30,周世坚,个人,A股,10000000,0.85%,-10000000,-50.00%,000055
2017-09-30,锺志强,个人,B股,21576850,4.08%,新进,--,000056
2017-09-30,刘国成,个人,B股,6891302,0.88%,61800,0.90%,000058
2017-09-30,张椒,个人,A股,4046989,0.52%,不变,--,000058
2017-09-30,刘国洪,个人,B股,3045839,0.39%,-129119,-4.07%,000058
2017-09-30,韩文霁,个人,A股,2980000,0.38%,新进,--,000058
2017-09-30,龚茜华,个人,B股,2940000,0.37%,不变,--,000058
2017-09-30,刘量,个人,A股,2206600,0.28%,新进,--,000058
2017-09-30,曹素丽,个人,A股,13067121,0.59%,新进,--,000060
2017-09-30,许育峰,个人,A股,17946220,1.06%,不变,--,000061
2017-09-30,刘建琪,个人,A股,2512186,0.38%,不变,--,000062
2017-09-30,易武,个人,A股,1827171,0.27%,不变,--,000062
2017-09-30,伍文彬,个人,A股,1512016,0.23%,新进,--,000062
2017-09-30,罗坚,个人,A股,1181496,0.18%,-1238467,-51.18%,000062
2017-09-30,张史莉,个人,A股,995600,0.15%,不变,--,000062
2017-09-30,孙惠刚,个人,A股,63956298,1.53%,-1842000,-2.80%,000063
2017-09-30,陈黎春,个人,A股,30136590,1.21%,7708080,34.37%,000066
2017-09-30,陈进平,个人,A股,7239000,0.81%,71100,0.99%,000068
2017-09-30,翁新跃,个人,A股,6041317,0.67%,1424000,30.84%,000068
2017-09-30,曹增保,个人,A股,3063000,0.34%,不变,--,000068
2017-09-30,付云峰,个人,A股,3060159,0.34%,不变,--,000068
2017-09-30,孙雪娟,个人,A股,2821930,0.31%,新进,--,000068
2017-09-30,王少熙,个人,A股,2688834,0.50%,新进,--,000070
2017-09-30,黄绮玉,个人,A股,2341816,0.43%,新进,--,000070
2017-09-30,李文泉,个人,A股,1630106,0.30%,新进,--,000070
2017-09-30,郑丽雅,个人,A股,14440000,0.70%,不变,--,000089
2017-09-30,林伟建,个人,A股,4212200,0.54%,593249,16.39%,000090
2017-09-30,胡殿君,个人,A股,4095124,0.53%,-30000,-0.73%,000090
2017-09-30,蔡少雄,个人,A股,3700000,0.48%,新进,--,000090
2017-09-30,古素银,个人,A股,3610140,0.47%,新进,--,000090
2017-09-30,黄木标,个人,A股,9786223,1.92%,不变,--,000096
2017-09-30,连晓燕,个人,A股,7189761,1.41%,不变,--,000096
2017-09-30,方锡林,个人,A股,7181553,1.41%,不变,--,000096
2017-09-30,蔡世潮,个人,A股,6778134,1.33%,不变,--,000096
2017-09-30,楼文胜,个人,A股,9851665,1.63%,不变,--,000099
2017-09-30,蒋进进,个人,A股,3293600,0.54%,不变,--,000099
2017-09-30,李涛,个人,A股,2688900,0.44%,不变,--,000099
2017-09-30,李东生,个人,A股,159568422,1.77%,不变,--,000100
2017-09-30,林正刚,个人,A股,13663580,3.86%,不变,--,000150
2017-09-30,李岳雄,个人,A股,5846181,1.65%,1400000,31.49%,000150
2017-09-30,代妙琼,个人,A股,5399123,1.53%,新进,--,000150
2017-09-30,杜一,个人,A股,894500,0.34%,不变,--,000151
2017-09-30,王增章,个人,A股,861300,0.32%,不变,--,000151
2017-09-30,邱东,个人,A股,846300,0.32%,不变,--,000151
2017-09-30,付秀珍,个人,A股,728100,0.27%,新进,--,000151
2017-09-30,韩燕,个人,A股,676500,0.25%,96500,16.64%,000151
2017-09-30,温建南,个人,A股,609000,0.23%,新进,--,000151
2017-09-30,邢念健,个人,A股,572800,0.21%,新进,--,000151
2017-09-30,曾纪锋,个人,A股,2917300,0.94%,451252,18.30%,000153
2017-09-30,胡海洋,个人,A股,1400000,0.45%,不变,--,000153
2017-09-30,张淑敏,个人,A股,1350000,0.43%,新进,--,000153
2017-09-30,谭益洋,个人,A股,1158800,0.37%,新进,--,000153
2017-09-30,施玮,个人,A股,6075000,0.61%,不变,--,000156
2017-09-30,刘沿阳,个人,A股,4172031,0.42%,380800,10.04%,000156
2017-09-30,俞振军,个人,A股,9956961,0.98%,6843761,219.83%,000158
2017-09-30,吴惠霞,个人,A股,9040132,0.89%,5145677,132.13%,000158
2017-09-30,周永生,个人,A股,8527686,0.84%,2931197,52.38%,000158
2017-09-30,徐俊,个人,A股,8248019,0.81%,新进,--,000158
2017-09-30,查振松,个人,A股,6651850,0.66%,2832050,74.14%,000158
2017-09-30,唐勇辉,个人,A股,5150927,0.51%,1673327,48.12%,000158
2017-09-30,郑东信,个人,A股,5050800,0.50%,935870,22.74%,000158
2017-09-30,袁建良,个人,A股,2170000,0.45%,70000,3.33%,000159
2017-09-30,陆继东,个人,A股,1699300,0.35%,22600,1.35%,000159
2017-09-30,刘长源,个人,A股,1370608,0.28%,14300,1.05%,000159
2017-09-30,徐冬水,个人,A股,1320000,0.27%,40000,3.13%,000159
2017-09-30,袁英,个人,A股,1162000,0.24%,不变,--,000159
2017-09-30,黄镇雄,个人,A股,1084800,0.23%,新进,--,000159
2017-09-30,许温华,个人,A股,1038600,0.22%,新进,--,000159
2017-09-30,郑伟,个人,A股,961800,0.20%,不变,--,000159
2017-09-30,谢士臣,个人,A股,3955000,0.32%,不变,--,000301
2017-09-30,黄洁,个人,A股,2844700,0.23%,不变,--,000301
2017-09-30,于英,个人,A股,2240000,0.18%,不变,--,000301
2017-09-30,李军照,个人,A股,1957300,0.16%,不变,--,000301
2017-09-30,黄健,个人,A股,87980000,1.39%,不变,--,000333
2017-09-30,袁利群,个人,A股,74365200,1.17%,379000,0.51%,000333
2017-09-30,付璇,个人,A股,68005680,1.07%,-8000,-0.01%,000333
2017-09-30,栗建伟,个人,A股,64144834,1.01%,不变,--,000333
2017-09-30,费占军,个人,A股,3433000,1.71%,17300,0.51%,000403
2017-09-30,李欣立,个人,A股,2800000,1.39%,不变,--,000403
2017-09-30,张寿清,个人,A股,2000000,0.99%,不变,--,000403
2017-09-30,王辉,个人,A股,5113282,0.74%,268071,5.53%,000404
2017-09-30,王芳,个人,A股,2849800,0.41%,新进,--,000404
2017-09-30,林细彬,个人,A股,2783975,0.40%,新进,--,000404
2017-09-30,孙冠杰,个人,A股,10600000,1.59%,不变,--,000407
2017-09-30,陶树宇,个人,A股,8053131,1.21%,209200,2.67%,000407
2017-09-30,苏枝桓,个人,A股,5023199,0.75%,310000,6.58%,000407
2017-09-30,曹立芳,个人,A股,3759322,0.56%,559900,17.50%,000407
2017-09-30,林秀伟,个人,A股,3500000,0.53%,800000,29.63%,000407
2017-09-30,李明,个人,A股,33996752,10.85%,新进,--,000408
2017-09-30,代小清,个人,A股,11277700,3.60%,-1002300,-8.16%,000408
2017-09-30,郑汉朝,个人,A股,7283374,2.32%,新进,--,000408
2017-09-30,李爽,个人,A股,5036900,1.61%,新进,--,000408
2017-09-30,倪再潮,个人,A股,4070000,1.30%,新进,--,000408
2017-09-30,胡爱松,个人,A股,2887572,0.73%,新进,--,000409
2017-09-30,李婷婷,个人,A股,2065779,0.52%,不变,--,000409
2017-09-30,陈芹燕,个人,A股,2016740,0.51%,-540000,-21.12%,000409
2017-09-30,张伟明,个人,A股,1909910,0.48%,新进,--,000409
2017-09-30,丁丽莎,个人,A股,3000049,0.41%,新进,--,000410
2017-09-30,钟振鑫,个人,A股,2300000,0.31%,-2294000,-49.93%,000410
2017-09-30,叶晶,个人,A股,1921200,0.26%,155300,8.79%,000410
2017-09-30,陈海华,个人,A股,1666900,0.23%,新进,--,000410
2017-09-30,吴金彪,个人,A股,1505101,0.20%,不变,--,000410
2017-09-30,蔡少斌,个人,A股,1478700,0.20%,新进,--,000410
2017-09-30,鞠钱,个人,A股,8784700,1.65%,-173800,-1.94%,000416
2017-09-30,周建国,个人,A股,4929900,0.93%,不变,--,000416
2017-09-30,张玉敏,个人,A股,2800000,0.53%,不变,--,000416
2017-09-30,邱伟豪,个人,A股,2313185,0.44%,362700,18.60%,000416
2017-09-30,陈天虹,个人,A股,2200100,0.41%,429900,24.29%,000416
2017-09-30,尹玉臻,个人,A股,1860000,0.35%,新进,--,000416
2017-09-30,昝圣达,个人,A股,17130000,2.20%,-260000,-1.50%,000417
2017-09-30,熊德宏,个人,A股,9220626,1.70%,163548,1.81%,000419
2017-09-30,朱小妹,个人,A股,5652367,1.04%,不变,--,000419
2017-09-30,李志鹤,个人,A股,5584544,1.03%,不变,--,000419
2017-09-30,李怡名,个人,A股,5032884,0.93%,不变,--,000419
2017-09-30,丁碧霞,个人,A股,4782107,0.88%,不变,--,000419
2017-09-30,陶美英,个人,A股,4363078,0.80%,506198,13.12%,000419
2017-09-30,李荣,个人,A股,7863300,0.80%,-8200,-0.10%,000420
2017-09-30,封艳,个人,A股,4563300,0.46%,252300,5.85%,000420
2017-09-30,卞勍,个人,A股,4216385,0.43%,新进,--,000420
2017-09-30,杨茁,个人,A股,3637000,0.37%,不变,--,000420
2017-09-30,李恩女,个人,A股,3626000,0.37%,不变,--,000420
2017-09-30,唐慧康,个人,A股,4649827,1.19%,-33218,-0.71%,000421
2017-09-30,胡志平,个人,A股,4486000,1.14%,543400,13.78%,000421
2017-09-30,倪思礼,个人,A股,2139400,0.55%,新进,--,000421
2017-09-30,王霞,个人,A股,5043625,0.56%,-33778,-0.67%,000422
2017-09-30,胡茂响,个人,A股,4153500,0.46%,新进,--,000422
2017-09-30,俞峰,个人,A股,3591899,0.40%,新进,--,000422
2017-09-30,谷耀山,个人,A股,3021766,0.34%,新进,--,000422
2017-09-30,张朝阳,个人,A股,5284700,0.74%,230000,4.55%,000428
2017-09-30,赵立巍,个人,A股,2605000,0.36%,不变,--,000428
2017-09-30,刁守伟,个人,A股,2514795,0.35%,不变,--,000428
2017-09-30,李峻,个人,A股,2143961,0.30%,不变,--,000428
2017-09-30,魏学利,个人,A股,2110060,0.29%,不变,--,000428
2017-09-30,王燕,个人,A股,2100000,0.29%,新进,--,000428
2017-09-30,陈琦,个人,A股,1978952,0.28%,新进,--,000428
2017-09-30,冯梧初,个人,"A股,B股",21438522,2.62%,-286275,-1.32%,000429
2017-09-30,刘红波,个人,A股,1879505,0.90%,50000,2.73%,000430
2017-09-30,苏文强,个人,A股,1726200,0.83%,-130200,-7.01%,000430
2017-09-30,张恒毓,个人,A股,1353200,0.65%,不变,--,000430
2017-09-30,金幸,个人,B股,7630100,0.40%,220000,2.97%,000488
2017-09-30,黄美珠,个人,A股,11359415,1.70%,473177,4.35%,000501
2017-09-30,纪正祥,个人,A股,1389500,0.76%,新进,--,000502
2017-09-30,毛贵良,个人,A股,1195300,0.65%,不变,--,000502
2017-09-30,潘光明,个人,A股,949163,0.52%,27700,3.01%,000502
2017-09-30,王昕,个人,A股,900000,0.49%,新进,--,000502
2017-09-30,刘荣赠,个人,A股,7612695,0.85%,不变,--,000503
2017-09-30,汪铭泉,个人,A股,6650000,0.74%,不变,--,000503
2017-09-30,张毅,个人,A股,6078178,0.68%,不变,--,000503
2017-09-30,潘丽,个人,A股,5797708,0.65%,不变,--,000503
2017-09-30,孙志英,个人,A股,4544000,0.51%,不变,--,000503
2017-09-30,吕益先,个人,A股,7995900,2.57%,1000,0.01%,000504
2017-09-30,邵雄,个人,A股,5135128,1.65%,532828,11.58%,000504
2017-09-30,白效洪,个人,A股,3392190,1.09%,不变,--,000504
2017-09-30,李宝珍,个人,A股,2595000,0.84%,-387700,-13.00%,000504
2017-09-30,LI SHERYN ZHAN MING,个人,B股,21282800,5.00%,373400,1.79%,000505
2017-09-30,梅建英,个人,A股,2583803,0.61%,不变,--,000505
2017-09-30,姚丽媛,个人,B股,1950000,0.46%,不变,--,000505
2017-09-30,张晓霞,个人,B股,1949250,0.46%,不变,--,000505
2017-09-30,王小星,个人,A股,1836500,0.43%,不变,--,000505
2017-09-30,陈藕琴,个人,A股,1652679,0.39%,新进,--,000505
2017-09-30,王道,个人,A股,1633300,0.38%,新进,--,000505
2017-09-30,钟懿,个人,A股,1604283,0.38%,新进,--,000505
2017-09-30,许震,个人,A股,1595000,0.37%,-830500,-34.24%,000505
2017-09-30,郑强,个人,A股,65869034,7.09%,不变,--,000506
2017-09-30,王海榕,个人,A股,7100049,0.92%,350000,5.19%,000507
2017-09-30,黎东,个人,A股,5830000,0.76%,不变,--,000507
2017-09-30,吴民,个人,A股,4658180,0.60%,不变,--,000507
2017-09-30,刘正平,个人,A股,2515681,0.33%,不变,--,000507
2017-09-30,莫家碧,个人,A股,1850000,0.24%,新进,--,000507
2017-09-30,苏勇,个人,A股,1500000,0.19%,不变,--,000507
2017-09-30,李长浈,个人,A股,1253500,0.16%,新进,--,000507
2017-09-30,黄文,个人,A股,5314000,0.64%,4000,0.08%,000509
2017-09-30,赵霄,个人,A股,4167004,0.51%,新进,--,000509
2017-09-30,刘江东,个人,A股,19882105,3.53%,4652525,30.55%,000510
2017-09-30,黄鑫,个人,A股,5489500,0.97%,新进,--,000510
2017-09-30,刘效敏,个人,A股,3889820,0.69%,-724180,-15.70%,000510
2017-09-30,肖立海,个人,A股,8658870,0.75%,不变,--,000511
2017-09-30,肖立江,个人,A股,3018835,0.26%,不变,--,000511
2017-09-30,何兆丽,个人,A股,2793470,0.24%,不变,--,000511
2017-09-30,李建雄,个人,A股,2300000,0.20%,不变,--,000511
2017-09-30,郭贞安,个人,A股,2200000,0.19%,不变,--,000511
2017-09-30,张滨,个人,A股,1482902,0.18%,新进,--,000514
2017-09-30,鄢继雄,个人,A股,1279593,0.15%,新进,--,000514
2017-09-30,陈泽钦,个人,A股,1031500,0.12%,-68500,-6.23%,000514
2017-09-30,谭艳,个人,A股,1009400,0.12%,-62000,-5.79%,000514
2017-09-30,王建兴,个人,A股,936238,0.11%,新进,--,000514
2017-09-30,钱年英,个人,A股,818800,0.10%,30000,3.80%,000514
2017-09-30,高原,个人,A股,13985985,0.72%,6128174,77.99%,000516
2017-09-30,曹鹤玲,个人,A股,12349443,0.64%,不变,--,000516
2017-09-30,王文学,个人,A股,11623350,0.60%,1902750,19.57%,000516
2017-09-30,王怡心,个人,A股,750000000,24.71%,不变,--,000517
2017-09-30,王久芳,个人,A股,48750000,1.61%,不变,--,000517
2017-09-30,李卓,个人,A股,10000000,0.33%,不变,--,000517
2017-09-30,宫和霞,个人,A股,6227803,0.21%,不变,--,000517
2017-09-30,王洪明,个人,A股,102953443,10.00%,51789905,101.22%,000518
2017-09-30,郁琴芬,个人,A股,47357842,4.60%,新进,--,000518
2017-09-30,赵龙,个人,A股,43062918,4.18%,不变,--,000518
2017-09-30,徐瑞康,个人,A股,37330319,3.63%,不变,--,000518
2017-09-30,张惠丰,个人,A股,30539115,2.97%,不变,--,000518
2017-09-30,陈建国,个人,A股,26096809,2.53%,-931243,-3.45%,000518
2017-09-30,许稚,个人,A股,25939100,2.52%,新进,--,000518
2017-09-30,王四清,个人,A股,33745300,5.79%,128700,0.38%,000519
2017-09-30,喻国兵,个人,A股,9891600,1.70%,-400654,-3.89%,000519
2017-09-30,张粒,个人,A股,7558464,1.30%,22164,0.29%,000519
2017-09-30,李天虹,个人,A股,13300000,1.31%,1492400,12.64%,000520
2017-09-30,陈杰,个人,A股,13200000,1.30%,-140031,-1.05%,000520
2017-09-30,李天云,个人,A股,12060000,1.19%,-1620000,-11.84%,000520
2017-09-30,张伟丽,个人,A股,11901732,1.18%,6077784,104.36%,000520
2017-09-30,邹孝敏,个人,A股,11840100,1.17%,1480200,14.29%,000520
2017-09-30,洪更云,个人,A股,7008101,0.69%,新进,--,000520
2017-09-30,CAO SHENGCHUN,个人,B股,13829083,1.83%,5900,0.04%,000521
2017-09-30,龙芹芳,个人,B股,3353496,0.44%,759,0.02%,000521
2017-09-30,郑浩,个人,A股,7686300,1.72%,-1800,-0.02%,000523
2017-09-30,吴炎汉,个人,A股,4888400,1.10%,不变,--,000523
2017-09-30,刘世良,个人,A股,4138826,0.93%,不变,--,000523
2017-09-30,王炽旭,个人,A股,3900000,0.87%,不变,--,000523
2017-09-30,蒋文碧,个人,A股,3107200,0.70%,107000,3.57%,000523
2017-09-30,尹红,个人,A股,2960851,0.66%,-89800,-2.94%,000523
2017-09-30,陈庆辉,个人,A股,920100,0.34%,-3900,-0.42%,000524
2017-09-30,黎紫娟,个人,A股,900000,0.33%,-311000,-25.68%,000524
2017-09-30,冯翰超,个人,A股,834700,0.31%,-425400,-33.76%,000524
2017-09-30,陈彤宇,个人,A股,755700,0.28%,不变,--,000524
2017-09-30,庄海英,个人,A股,725000,0.27%,13500,1.90%,000524
2017-09-30,胡军,个人,A股,5543344,1.09%,不变,--,000525
2017-09-30,郭文娟,个人,A股,1511261,1.57%,420200,38.51%,000526
2017-09-30,俞晴,个人,A股,1300000,1.35%,-60000,-4.41%,000526
2017-09-30,刘伟,个人,A股,1103339,1.15%,不变,--,000526
2017-09-30,陈红,个人,A股,758600,0.79%,23900,3.25%,000526
2017-09-30,谌建平,个人,A股,747700,0.78%,-8500,-1.12%,000526
2017-09-30,阎占表,个人,A股,8000000,1.40%,-229900,-2.79%,000529
2017-09-30,吴小仙,个人,A股,2246400,0.39%,新进,--,000529
2017-09-30,崔丽舒,个人,A股,2180000,0.38%,30000,1.40%,000529
2017-09-30,李连安,个人,A股,2029757,0.36%,不变,--,000529
2017-09-30,牟柏霖,个人,A股,1964682,0.34%,新进,--,000529
2017-09-30,林镇铭,个人,B股,6190000,0.75%,-40000,-0.64%,000530
2017-09-30,孙慧明,个人,B股,5634499,0.68%,新进,--,000530
2017-09-30,张武,个人,A股,5110031,0.75%,2110031,70.33%,000531
2017-09-30,叶立棋,个人,A股,4667059,0.68%,2900,0.06%,000531
2017-09-30,丁春林,个人,A股,3109157,0.45%,不变,--,000531
2017-09-30,贾连喜,个人,A股,2410300,0.35%,336159,16.21%,000531
2017-09-30,罗晶,个人,A股,1790226,0.26%,新进,--,000531
2017-09-30,李葛卫,个人,A股,2150000,0.63%,不变,--,000532
2017-09-30,彭超,个人,A股,1000000,0.29%,新进,--,000532
2017-09-30,沙剑,个人,A股,887868,0.26%,新进,--,000532
2017-09-30,王毅,个人,A股,813508,0.24%,新进,--,000532
2017-09-30,张明园,个人,A股,54472109,7.95%,不变,--,000533
2017-09-30,温洪标,个人,A股,11667217,1.70%,56686,0.49%,000533
2017-09-30,李敏仙,个人,A股,17413264,3.54%,-491736,-2.75%,000534
2017-09-30,李邓,个人,A股,3215526,0.26%,新进,--,000536
2017-09-30,罗瑞云,个人,A股,9753593,1.90%,2420790,33.01%,000537
2017-09-30,汪向东,个人,A股,6800000,1.33%,1839500,37.08%,000537
2017-09-30,王春艳,个人,A股,6256675,1.22%,1477800,30.92%,000537
2017-09-30,张伟,个人,A股,5629091,1.10%,新进,--,000537
2017-09-30,王雪梅,个人,A股,5105291,1.00%,不变,--,000537
2017-09-30,陈发树,个人,A股,8948211,0.86%,不变,--,000538
2017-09-30,李卓,个人,A股,31009743,0.93%,9058358,41.27%,000539
2017-09-30,郑建祥,个人,B股,18453452,0.55%,新进,--,000539
2017-09-30,陈伟利,个人,A股,13880000,0.35%,4680000,50.87%,000540
2017-09-30,宋建波,个人,A股,8448621,0.21%,不变,--,000540
2017-09-30,郑舜珍,个人,A股,5500700,0.14%,新进,--,000540
2017-09-30,彭伟燕,个人,A股,8546042,0.68%,新进,--,000541
2017-09-30,徐克伟,个人,A股,15127350,0.84%,55900,0.37%,000543
2017-09-30,肖赛花,个人,A股,5003900,0.28%,新进,--,000543
2017-09-30,胡立新,个人,A股,4855117,0.27%,新进,--,000543
2017-09-30,谢艺群,个人,A股,2934196,0.84%,31996,1.10%,000544
2017-09-30,黄语晨,个人,A股,2909600,0.84%,新进,--,000544
2017-09-30,吴洁,个人,A股,2679453,0.77%,不变,--,000544
2017-09-30,赵妙真,个人,A股,2563200,0.74%,新进,--,000544
2017-09-30,王小江,个人,A股,7380486,0.77%,-1566600,-17.51%,000545
2017-09-30,曹辉进,个人,A股,4580000,0.48%,-600900,-11.60%,000545
2017-09-30,李斌,个人,A股,3803530,0.40%,200,0.01%,000545
2017-09-30,柳冰,个人,A股,3759800,0.39%,不变,--,000545
2017-09-30,范皓辉,个人,A股,10333425,3.43%,不变,--,000546
2017-09-30,徐亚清,个人,A股,8890000,2.95%,不变,--,000546
2017-09-30,胡甘棉,个人,A股,6264951,2.08%,新进,--,000546
2017-09-30,田榕,个人,A股,4975735,1.65%,新进,--,000546
2017-09-30,田峰,个人,A股,4441908,1.48%,新进,--,000546
2017-09-30,蔡倩,个人,A股,24380000,2.52%,-970000,-3.83%,000547
2017-09-30,牛封,个人,A股,16486919,1.71%,新进,--,000547
2017-09-30,佟建勋,个人,A股,16001717,1.66%,新进,--,000547
2017-09-30,池汉雄,个人,A股,7053500,1.41%,223500,3.27%,000548
2017-09-30,夏世勇,个人,A股,5667812,1.14%,不变,--,000548
2017-09-30,王雪,个人,A股,4472700,0.90%,772700,20.88%,000548
2017-09-30,李增琪,个人,A股,2960794,0.59%,1396101,89.23%,000548
2017-09-30,石金旺,个人,A股,2248596,0.45%,-300,-0.01%,000548
2017-09-30,谭德富,个人,A股,1942151,0.39%,新进,--,000548
2017-09-30,李永宏,个人,A股,1680000,0.34%,-54900,-3.16%,000548
2017-09-30,林耀礼,个人,A股,1650000,0.33%,不变,--,000548
2017-09-30,马彦文,个人,A股,1576800,0.32%,新进,--,000548
2017-09-30,徐东,个人,A股,19994606,5.00%,不变,--,000551
2017-09-30,王柯华,个人,A股,7592950,1.90%,813800,12.00%,000551
2017-09-30,张铂,个人,A股,6958639,1.74%,1075,0.02%,000551
2017-09-30,陈越孟,个人,A股,4388000,1.10%,88000,2.05%,000551
2017-09-30,陈述秋,个人,A股,1726782,0.43%,不变,--,000551
2017-09-30,季法强,个人,A股,1690000,0.42%,138300,8.91%,000551
2017-09-30,杨少荣,个人,A股,1370802,0.34%,新进,--,000551
2017-09-30,夏重阳,个人,A股,26060000,1.67%,新进,--,000552
2017-09-30,谢庆军,个人,B股,4490033,0.76%,31800,0.71%,000553
2017-09-30,石云,个人,A股,2830000,0.48%,-537606,-15.96%,000553
2017-09-30,周奇平,个人,A股,2093045,0.35%,166800,8.66%,000553
2017-09-30,屠秋,个人,A股,4200000,1.16%,-50000,-1.18%,000554
2017-09-30,白婷婷,个人,A股,3932600,1.08%,不变,--,000554
2017-09-30,李建明,个人,A股,2468600,0.68%,新进,--,000554
2017-09-30,张卫红,个人,A股,2315517,0.64%,209000,9.92%,000554
2017-09-30,李跃明,个人,A股,2028232,0.56%,新进,--,000554
2017-09-30,张明星,个人,A股,1889175,0.52%,-1390726,-42.40%,000554
2017-09-30,柯怀强,个人,A股,1885580,0.52%,新进,--,000554
2017-09-30,谢漠良,个人,A股,1703254,0.47%,新进,--,000554
2017-09-30,韩赓,个人,A股,3305000,0.37%,810000,32.46%,000555
2017-09-30,贺胜龙,个人,A股,2830000,0.32%,不变,--,000555
2017-09-30,吕强,个人,A股,1287813,0.15%,不变,--,000555
2017-09-30,王海涛,个人,A股,1011315,0.11%,不变,--,000555
2017-09-30,徐开东,个人,A股,7135412,1.22%,2186761,44.19%,000557
2017-09-30,郑毅仁,个人,A股,5625000,0.96%,10000,0.18%,000557
2017-09-30,江游,个人,A股,4047250,0.69%,-29018,-0.71%,000557
2017-09-30,郑慧霞,个人,A股,3430000,0.59%,80000,2.39%,000557
2017-09-30,刘锦英,个人,A股,3423800,0.59%,2900,0.08%,000557
2017-09-30,方志嘉,个人,A股,3115000,0.53%,10000,0.32%,000557
2017-09-30,郑淑英,个人,A股,2365000,0.40%,35000,1.50%,000557
2017-09-30,刘兴宏,个人,A股,2355960,0.40%,新进,--,000557
2017-09-30,孙钢建,个人,A股,2280278,0.39%,不变,--,000557
2017-09-30,侯秀兰,个人,A股,2250000,0.38%,不变,--,000557
2017-09-30,高靖娜,个人,A股,79380000,6.16%,不变,--,000558
2017-09-30,邢宏图,个人,A股,3825600,0.30%,1201200,45.77%,000558
2017-09-30,蔡迪敏,个人,A股,3724720,0.29%,不变,--,000558
2017-09-30,须佳雯,个人,A股,3712375,0.29%,不变,--,000558
2017-09-30,林仙琴,个人,A股,2744866,0.21%,不变,--,000558
2017-09-30,徐美琴,个人,A股,2143890,0.17%,-791500,-26.96%,000558
2017-09-30,张阔,个人,A股,6556440,0.24%,不变,--,000559
2017-09-30,施玮,个人,A股,6460237,0.24%,新进,--,000559
2017-09-30,谢勇,个人,A股,25000000,7.33%,不变,--,000560
2017-09-30,邵红珊,个人,A股,4352600,0.73%,443700,11.35%,000561
2017-09-30,安俊明,个人,A股,8490000,1.33%,不变,--,000564
2017-09-30,李勇,个人,A股,4796220,0.75%,109700,2.34%,000564
2017-09-30,吴伟,个人,A股,3709394,0.58%,441100,13.50%,000564
2017-09-30,潘卫清,个人,A股,3300370,0.52%,不变,--,000564
2017-09-30,郑林,个人,A股,2913039,0.46%,1400,0.05%,000564
2017-09-30,丁燕芳,个人,A股,2462000,0.39%,新进,--,000564
2017-09-30,谢慧明,个人,A股,2340800,0.54%,新进,--,000565
2017-09-30,邹森鹏,个人,A股,2340000,0.54%,80000,3.54%,000565
2017-09-30,汪新文,个人,A股,2011574,0.46%,不变,--,000565
2017-09-30,凌朝明,个人,A股,1818808,0.42%,新进,--,000565
2017-09-30,林尚德,个人,A股,1308399,0.30%,408399,45.38%,000565
2017-09-30,徐一炜,个人,A股,1156200,0.27%,新进,--,000565
2017-09-30,昌孝润,个人,A股,949550,0.22%,-22900,-2.35%,000565
2017-09-30,邓潮泉,个人,A股,887600,0.20%,新进,--,000565
2017-09-30,胡景,个人,A股,3056111,2.03%,新进,--,000567
2017-09-30,雷平安,个人,A股,4093998,0.73%,新进,--,000570
2017-09-30,彭军,个人,A股,1800000,0.32%,新进,--,000570
2017-09-30,黄国良,个人,B股,1528891,0.27%,不变,--,000570
2017-09-30,梁年有,个人,A股,1362652,0.24%,新进,--,000570
2017-09-30,黎穗南,个人,B股,1338700,0.24%,新进,--,000570
2017-09-30,吕良丰,个人,A股,7654970,0.95%,-1707987,-18.24%,000571
2017-09-30,彭浩,个人,A股,7313114,0.91%,不变,--,000571
2017-09-30,刘黎明,个人,A股,5405257,0.67%,新进,--,000571
2017-09-30,赵赢,个人,A股,4380000,0.54%,新进,--,000571
2017-09-30,易敏珠,个人,A股,7309862,1.17%,606177,9.04%,000573
2017-09-30,高云,个人,A股,4049900,0.65%,120000,3.05%,000573
2017-09-30,蒋锡才,个人,A股,4021131,0.65%,34231,0.86%,000573
2017-09-30,巫德元,个人,A股,3187500,0.51%,新进,--,000573
2017-09-30,张兰凤,个人,A股,2997768,0.48%,新进,--,000573
2017-09-30,罗双跃,个人,A股,12984131,2.99%,-1929367,-12.94%,000576
2017-09-30,陈喻华,个人,A股,2088369,0.79%,新进,--,000582
2017-09-30,虞茂椽,个人,A股,1340870,0.51%,不变,--,000582
2017-09-30,李昊,个人,A股,7110908,1.16%,不变,--,000584
2017-09-30,林培,个人,A股,6900000,1.13%,不变,--,000584
2017-09-30,王伟,个人,A股,3287700,0.54%,新进,--,000584
2017-09-30,李萍,个人,A股,2760000,0.45%,新进,--,000584
2017-09-30,杨琴秀,个人,A股,27955752,3.22%,不变,--,000585
2017-09-30,李震,个人,A股,4824334,0.56%,新进,--,000585
2017-09-30,史宇波,个人,A股,3754300,0.43%,不变,--,000585
2017-09-30,吴国琳,个人,A股,3041467,0.35%,新进,--,000585
2017-09-30,胡岚,个人,A股,2834990,0.33%,新进,--,000585
2017-09-30,徐开东,个人,A股,2431359,0.28%,178359,7.92%,000585
2017-09-30,杨宁恩,个人,A股,9194373,4.75%,-50000,-0.54%,000586
2017-09-30,袁永刚,个人,A股,3930587,2.03%,不变,--,000586
2017-09-30,许北华,个人,A股,12132948,1.05%,5892424,94.42%,000587
2017-09-30,池连安,个人,A股,8840100,0.77%,4441300,100.97%,000587
2017-09-30,魏惠玲,个人,A股,8161702,0.71%,新进,--,000587
2017-09-30,许萍,个人,A股,6746836,0.59%,新进,--,000587
2017-09-30,刘昌,个人,A股,4546902,0.59%,-104300,-2.24%,000589
2017-09-30,王枭,个人,A股,3215180,0.41%,-528620,-14.12%,000589
2017-09-30,林美惠,个人,A股,2600000,0.34%,新进,--,000589
2017-09-30,宋传苓,个人,A股,2400000,0.31%,新进,--,000589
2017-09-30,殷春秀,个人,A股,2242892,0.29%,17500,0.79%,000589
2017-09-30,金鹤顺,个人,A股,2220000,0.29%,不变,--,000589
2017-09-30,张蕴,个人,A股,3850000,1.72%,764000,24.76%,000590
2017-09-30,张良,个人,A股,3285800,1.47%,707800,27.46%,000590
2017-09-30,魏满凤,个人,A股,2346285,1.05%,新进,--,000590
2017-09-30,杨燕灵,个人,A股,2122621,0.95%,新进,--,000590
2017-09-30,吴锦文,个人,A股,14942682,0.78%,不变,--,000592
2017-09-30,吴泰华,个人,A股,10406000,0.54%,新进,--,000592
2017-09-30,吴锦祥,个人,A股,8195708,0.43%,不变,--,000592
2017-09-30,杨瑞洁,个人,A股,3782224,1.35%,新进,--,000593
2017-09-30,郭学平,个人,A股,2303900,0.82%,新进,--,000593
2017-09-30,包桢臻,个人,A股,2040854,0.73%,新进,--,000593
2017-09-30,徐炜,个人,A股,2011889,0.72%,新进,--,000593
2017-09-30,陈燕月,个人,A股,1766500,0.63%,新进,--,000593
2017-09-30,李敬蓉,个人,A股,1393991,0.50%,-306109,-18.01%,000593
2017-09-30,邹政,个人,A股,3798206,0.77%,1507006,65.77%,000595
2017-09-30,万俊杰,个人,A股,2849300,0.58%,新进,--,000595
2017-09-30,江涛,个人,A股,2381742,0.48%,不变,--,000595
2017-09-30,黄宇,个人,A股,2149200,0.43%,649200,43.28%,000595
2017-09-30,白莉,个人,A股,1590200,0.32%,-257500,-13.94%,000595
2017-09-30,田明,个人,A股,1212000,0.24%,新进,--,000595
2017-09-30,杨华,个人,A股,1151700,0.23%,新进,--,000595
2017-09-30,王忠香,个人,A股,1128300,0.23%,新进,--,000595
2017-09-30,郑安坤,个人,A股,10375362,2.19%,1957012,23.25%,000597
2017-09-30,黄庆清,个人,A股,7317181,1.55%,996700,15.77%,000597
2017-09-30,吴海珍,个人,A股,5492433,1.16%,新进,--,000597
2017-09-30,吴秀英,个人,A股,4215777,0.89%,不变,--,000597
2017-09-30,梁凤好,个人,A股,10789275,0.36%,1242621,13.02%,000598
2017-09-30,刘志强,个人,A股,10246057,0.34%,80000,0.79%,000598
2017-09-30,张兵,个人,A股,7857027,0.26%,新进,--,000598
2017-09-30,高虎泉,个人,A股,7000000,0.23%,新进,--,000598
2017-09-30,戴文,个人,A股,11035597,1.76%,277400,2.58%,000599
2017-09-30,张梅珍,个人,A股,3693003,0.59%,新进,--,000599
2017-09-30,王萌,个人,A股,2440800,0.39%,新进,--,000599
2017-09-30,夏欣,个人,A股,2263377,0.36%,120600,5.63%,000599
2017-09-30,孙丽,个人,A股,1600000,0.25%,新进,--,000599
2017-09-30,王永胜,个人,A股,2550000,0.23%,新进,--,000600
2017-09-30,程光耀,个人,A股,2170000,0.20%,新进,--,000600
2017-09-30,王小荣,个人,A股,21600000,5.26%,不变,--,000603
2017-09-30,卢宝成,个人,A股,19229982,4.68%,-3500,-0.02%,000603
2017-09-30,赵满堂,个人,A股,17500000,4.26%,不变,--,000603
2017-09-30,王伟,个人,A股,8953345,2.18%,不变,--,000603
2017-09-30,翁如山,个人,A股,957700,0.49%,147200,18.16%,000605
2017-09-30,林飞扬,个人,A股,800000,0.41%,不变,--,000605
2017-09-30,李春阳,个人,A股,745100,0.38%,新进,--,000605
2017-09-30,毛慧,个人,A股,700000,0.36%,新进,--,000605
2017-09-30,王远淞,个人,A股,621400,0.32%,新进,--,000605
2017-09-30,李再荣,个人,A股,7954652,1.68%,不变,--,000606
2017-09-30,连良桂,个人,A股,3719657,0.79%,不变,--,000606
2017-09-30,雷立军,个人,A股,11775580,2.42%,不变,--,000607
2017-09-30,谭希宁,个人,A股,5100000,1.05%,1672500,48.80%,000607
2017-09-30,王紫军,个人,A股,3690529,0.76%,不变,--,000607
2017-09-30,胡志剑,个人,A股,3559423,0.73%,不变,--,000607
2017-09-30,周永伟,个人,A股,1959990,0.40%,不变,--,000607
2017-09-30,宋梓琪,个人,A股,36649061,4.89%,不变,--,000608
2017-09-30,黄楚平,个人,A股,24211040,3.23%,6632701,37.73%,000608
2017-09-30,林圳耿,个人,A股,23138973,3.09%,5301340,29.72%,000608
2017-09-30,林俊龙,个人,A股,8315106,1.11%,新进,--,000608
2017-09-30,黄国海,个人,A股,8258967,1.10%,不变,--,000608
2017-09-30,陈焕杰,个人,A股,6781430,0.90%,不变,--,000608
2017-09-30,张音,个人,A股,6598984,0.88%,不变,--,000608
2017-09-30,郑宽,个人,A股,6027139,2.24%,不变,--,000609
2017-09-30,凌健,个人,A股,4331200,1.61%,-401496,-8.48%,000609
2017-09-30,陈凤珠,个人,A股,11000000,3.45%,不变,--,000611
2017-09-30,符海密,个人,A股,3102918,0.97%,不变,--,000611
2017-09-30,吴建伟,个人,A股,2918800,0.91%,395000,15.65%,000611
2017-09-30,邱晓勤,个人,A股,2146800,0.67%,新进,--,000611
2017-09-30,于波,个人,A股,2140000,0.67%,不变,--,000611
2017-09-30,柴徐华,个人,A股,1808800,0.57%,新进,--,000611
2017-09-30,周林松,个人,A股,1750000,0.55%,-135000,-7.16%,000611
2017-09-30,陶世青,个人,A股,16489900,1.65%,-5875000,-26.27%,000612
2017-09-30,潘国平,个人,B股,30879791,8.73%,不变,--,000613
2017-09-30,胡建国,个人,A股,6227640,1.76%,不变,--,000613
2017-09-30,张峰秀,个人,A股,3901372,1.10%,不变,--,000613
2017-09-30,姜顺头,个人,A股,3668800,1.04%,新进,--,000613
2017-09-30,张建兵,个人,A股,4961800,1.40%,315500,6.79%,000615
2017-09-30,王暨钟,个人,A股,2829600,0.80%,新进,--,000615
2017-09-30,郭艺,个人,A股,2300000,0.65%,不变,--,000615
2017-09-30,张丽君,个人,A股,1587500,0.45%,新进,--,000615
2017-09-30,潘东丽,个人,A股,1000000,0.28%,-185300,-15.63%,000615
2017-09-30,韩波,个人,A股,1000000,0.28%,新进,--,000615
2017-09-30,周建明,个人,A股,927900,0.26%,新进,--,000615
2017-09-30,王道育,个人,A股,903300,0.25%,新进,--,000615
2017-09-30,李香香,个人,A股,12044547,0.84%,4455847,58.72%,000616
2017-09-30,朱盛兰,个人,A股,9158100,0.64%,1258100,15.93%,000616
2017-09-30,黄孝梅,个人,A股,8080000,0.56%,964200,13.55%,000616
2017-09-30,宋信斌,个人,A股,7494790,0.52%,-838000,-10.06%,000616
2017-09-30,黄立新,个人,A股,5046949,0.35%,新进,--,000616
2017-09-30,郑小明,个人,A股,4649000,0.33%,-439500,-8.64%,000616
2017-09-30,欧阳长春,个人,A股,1632900,1.42%,480200,41.66%,000617
2017-09-30,顾力平,个人,A股,1200000,1.04%,-550307,-31.44%,000617
2017-09-30,欧阳长健,个人,A股,1047400,0.91%,-60000,-5.42%,000617
2017-09-30,李辉,个人,A股,812700,0.71%,74000,10.02%,000617
2017-09-30,黄小艺,个人,A股,784300,0.68%,6700,0.86%,000617
2017-09-30,张步洲,个人,A股,781100,0.68%,-46800,-5.65%,000617
2017-09-30,李俊,个人,A股,6190000,1.72%,950000,18.13%,000619
2017-09-30,孙珊珊,个人,A股,2422310,0.67%,16010,0.67%,000619
2017-09-30,薛辉,个人,A股,2067986,0.57%,158032,8.27%,000619
2017-09-30,胡根华,个人,A股,1818000,0.51%,不变,--,000619
2017-09-30,张玉华,个人,A股,1376200,0.38%,新进,--,000619
2017-09-30,姜滨,个人,A股,3957000,0.93%,不变,--,000622
2017-09-30,范琦,个人,A股,1611400,0.38%,不变,--,000622
2017-09-30,陈广军,个人,A股,1560000,0.37%,新进,--,000622
2017-09-30,张成伍,个人,A股,1400700,0.33%,不变,--,000622
2017-09-30,陈晓宜,个人,A股,1381501,0.32%,不变,--,000622
2017-09-30,蒋宇,个人,A股,2794000,0.69%,-5000,-0.18%,000626
2017-09-30,王剑峰,个人,A股,2614100,0.65%,-2494990,-48.83%,000626
2017-09-30,王玉香,个人,A股,2094900,0.52%,新进,--,000626
2017-09-30,马瑞敏,个人,A股,1894964,0.47%,不变,--,000626
2017-09-30,杨菊芳,个人,A股,1169702,0.29%,新进,--,000626
2017-09-30,凌花,个人,A股,1041443,0.26%,新进,--,000626
2017-09-30,杜志泉,个人,A股,1039400,0.26%,16200,1.58%,000626
2017-09-30,周光德,个人,A股,7687785,0.57%,不变,--,000627
2017-09-30,李福桥,个人,A股,6487364,0.48%,94300,1.48%,000627
2017-09-30,宁一民,个人,A股,6411900,0.47%,-1300,-0.02%,000627
2017-09-30,赵玉,个人,A股,5300000,0.39%,新进,--,000627
2017-09-30,马任远,个人,A股,3274200,0.24%,新进,--,000627
2017-09-30,叶萍,个人,A股,3232376,0.24%,新进,--,000627
2017-09-30,朱永存,个人,A股,1936600,1.03%,900,0.05%,000628
2017-09-30,王成周,个人,A股,1541403,0.82%,不变,--,000628
2017-09-30,魏勇,个人,A股,1400000,0.74%,新进,--,000628
2017-09-30,王志,个人,A股,1302500,0.69%,-73587,-5.35%,000628
2017-09-30,郭芳,个人,A股,1235820,0.66%,700,0.06%,000628
2017-09-30,童胜朋,个人,A股,1052900,0.56%,新进,--,000628
2017-09-30,庞筠,个人,A股,903045,0.48%,新进,--,000628
2017-09-30,李有莲,个人,A股,841300,0.45%,新进,--,000628
2017-09-30,黄红梅,个人,A股,28721300,0.60%,不变,--,000629
2017-09-30,国全庆,个人,A股,26763297,0.28%,5566034,26.26%,000630
2017-09-30,陈前平,个人,A股,25643338,0.27%,新进,--,000630
2017-09-30,黄杰,个人,A股,24337040,0.25%,新进,--,000630
2017-09-30,严琳,个人,A股,7285311,0.30%,新进,--,000631
2017-09-30,林明正,个人,A股,23108838,4.96%,不变,--,000632
2017-09-30,陈萍,个人,A股,11479833,2.47%,新进,--,000632
2017-09-30,何昌珍,个人,A股,8480000,1.82%,不变,--,000632
2017-09-30,杨新红,个人,A股,52600000,13.66%,不变,--,000633
2017-09-30,张光远,个人,A股,2069732,0.54%,新进,--,000633
2017-09-30,陈冰,个人,A股,1402300,0.36%,不变,--,000633
2017-09-30,孙东军,个人,A股,1326300,0.34%,81500,6.55%,000633
2017-09-30,郝明,个人,A股,1256800,0.33%,新进,--,000633
2017-09-30,朴永松,个人,A股,3820700,1.26%,803700,26.64%,000635
2017-09-30,谢红秀,个人,A股,1960000,0.65%,不变,--,000635
2017-09-30,梁浩权,个人,A股,1610200,0.53%,532400,49.40%,000635
2017-09-30,蔡学慧,个人,A股,1204900,0.40%,2500,0.21%,000635
2017-09-30,彭帅,个人,A股,896335,0.30%,16500,1.88%,000635
2017-09-30,岳丽英,个人,A股,729500,0.24%,-294300,-28.75%,000635
2017-09-30,伍腾,个人,A股,4089579,0.50%,新进,--,000636
2017-09-30,胡明,个人,A股,3547900,0.97%,2619100,281.99%,000637
2017-09-30,梁雯雯,个人,A股,2346000,0.64%,-400,-0.02%,000637
2017-09-30,王银祥,个人,A股,1800000,0.49%,不变,--,000637
2017-09-30,李伟彬,个人,A股,1330000,0.36%,-911256,-40.66%,000637
2017-09-30,李爱儿,个人,A股,1215100,0.33%,新进,--,000637
2017-09-30,沈振国,个人,A股,4805590,1.55%,695900,16.93%,000638
2017-09-30,沈爱清,个人,A股,991654,0.32%,新进,--,000638
2017-09-30,刘戈林,个人,A股,827700,0.27%,不变,--,000638
2017-09-30,刘玉,个人,A股,826900,0.27%,不变,--,000638
2017-09-30,彭军,个人,A股,600000,0.19%,-919300,-60.51%,000638
2017-09-30,高仲,个人,A股,590100,0.19%,-40000,-6.35%,000638
2017-09-30,杨潇,个人,A股,76802500,6.20%,不变,--,000650
2017-09-30,池东铭,个人,A股,20223177,1.63%,51,0.00%,000650
2017-09-30,蒋丽娜,个人,A股,12310000,0.99%,180000,1.48%,000650
2017-09-30,黄志敏,个人,A股,11400000,0.92%,不变,--,000650
2017-09-30,黄永耀,个人,A股,8727637,0.70%,2639275,43.35%,000650
2017-09-30,张素芬,个人,A股,8020000,0.65%,910000,12.80%,000650
2017-09-30,陈翠枚,个人,A股,4801172,0.39%,新进,--,000650
2017-09-30,彭兵生,个人,A股,4110708,0.28%,新进,--,000652
2017-09-30,王宪英,个人,A股,2097800,0.35%,新进,--,000655
2017-09-30,方玉仙,个人,A股,1839500,0.31%,691800,60.28%,000655
2017-09-30,姚香珠,个人,A股,1425000,0.24%,8000,0.56%,000655
2017-09-30,刘锐生,个人,A股,1286500,0.22%,新进,--,000655
2017-09-30,李玉山,个人,A股,1255660,0.21%,新进,--,000655
2017-09-30,张健江,个人,A股,1050000,0.18%,新进,--,000655
2017-09-30,黄红云,个人,A股,497999389,11.93%,不变,--,000656
2017-09-30,陶虹遐,个人,A股,132936714,3.18%,不变,--,000656
2017-09-30,田民春,个人,A股,28778473,0.69%,新进,--,000656
2017-09-30,陈锦容,个人,A股,25587200,0.61%,新进,--,000656
2017-09-30,潘英俊,个人,A股,7399800,3.01%,-3060200,-29.26%,000657
2017-09-30,刘伟雄,个人,A股,2208269,0.90%,18369,0.84%,000657
2017-09-30,潘乾,个人,A股,1810000,0.74%,-435000,-19.38%,000657
2017-09-30,白慧,个人,A股,1590200,0.65%,不变,--,000657
2017-09-30,余金红,个人,A股,1354600,0.55%,7100,0.53%,000657
2017-09-30,陈杰,个人,A股,27300000,2.12%,新进,--,000659
2017-09-30,吴森辉,个人,A股,11214400,0.87%,不变,--,000659
2017-09-30,公新东,个人,A股,11011786,0.86%,-98000,-0.88%,000659
2017-09-30,张雁南,个人,A股,6000000,0.47%,-3855900,-39.12%,000659
2017-09-30,潘俊宇,个人,A股,5805535,0.45%,不变,--,000659
2017-09-30,高凤彩,个人,A股,5465000,0.43%,新进,--,000659
2017-09-30,刘焕生,个人,A股,5267500,0.41%,-677987,-11.40%,000659
2017-09-30,陈欣欣,个人,A股,4955000,0.39%,新进,--,000659
2017-09-30,林燕琼,个人,A股,4934800,0.38%,新进,--,000659
2017-09-30,白江才,个人,A股,1224400,0.72%,新进,--,000661
2017-09-30,聂宗道,个人,A股,6078786,2.11%,不变,--,000662
2017-09-30,曾伟良,个人,A股,1815370,0.63%,不变,--,000662
2017-09-30,周政来,个人,A股,1747444,0.61%,不变,--,000662
2017-09-30,苏加旭,个人,A股,13433391,7.10%,不变,--,000663
2017-09-30,黄江畔,个人,A股,6282366,3.32%,-226700,-3.48%,000663
2017-09-30,黄江河,个人,A股,2367966,1.25%,-135713,-5.42%,000663
2017-09-30,徐文娟,个人,A股,5500000,1.19%,311500,6.00%,000665
2017-09-30,郑卫良,个人,A股,4000000,1.36%,-1627000,-28.91%,000666
2017-09-30,袁启强,个人,A股,210236653,8.28%,不变,--,000667
2017-09-30,苗孝祥,个人,A股,69300000,2.73%,不变,--,000667
2017-09-30,刘琼兰,个人,A股,47240000,1.86%,不变,--,000667
2017-09-30,刘小兰,个人,A股,41000000,1.61%,不变,--,000667
2017-09-30,刘丹,个人,A股,39200000,1.54%,不变,--,000667
2017-09-30,彭凯,个人,A股,16664747,0.66%,新进,--,000667
2017-09-30,王浩,个人,A股,16481800,0.65%,不变,--,000667
2017-09-30,陈冠军,个人,A股,2721815,1.86%,12271,0.45%,000668
2017-09-30,王秀荣,个人,A股,1693167,1.15%,新进,--,000668
2017-09-30,李庆,个人,A股,7654127,1.60%,不变,--,000669
2017-09-30,彭晓雷,个人,A股,7562300,1.58%,不变,--,000669
2017-09-30,邵蕙,个人,A股,10000000,1.67%,-3000000,-23.08%,000670
2017-09-30,刘淑芳,个人,A股,7978600,1.33%,新进,--,000670
2017-09-30,蔚文燕,个人,A股,5820000,0.97%,新进,--,000670
2017-09-30,王彩霞,个人,A股,3021231,0.50%,124731,4.31%,000670
2017-09-30,侯殿江,个人,A股,1813322,0.30%,新进,--,000670
2017-09-30,林婵燕,个人,A股,1475100,0.25%,新进,--,000670
2017-09-30,林荣,个人,A股,45082447,1.39%,不变,--,000671
2017-09-30,余惠忠,个人,A股,1224600,0.15%,新进,--,000672
2017-09-30,余惠华,个人,A股,862151,0.11%,新进,--,000672
2017-09-30,刘宏庆,个人,A股,810300,0.10%,新进,--,000672
2017-09-30,张凤,个人,A股,756600,0.09%,新进,--,000672
2017-09-30,余晴,个人,A股,685795,0.08%,新进,--,000672
2017-09-30,刘广浩,个人,A股,2906295,0.70%,不变,--,000673
2017-09-30,陈霖,个人,A股,2614068,0.63%,新进,--,000673
2017-09-30,李向清,个人,A股,24000000,7.58%,不变,--,000676
2017-09-30,赵兴宝,个人,A股,2480290,0.78%,不变,--,000676
2017-09-30,郭旭,个人,A股,2380409,0.75%,不变,--,000676
2017-09-30,唐梦华,个人,A股,2049950,0.65%,-10000,-0.49%,000676
2017-09-30,计宏铭,个人,A股,1911651,0.60%,不变,--,000676
2017-09-30,王钧,个人,A股,1880655,0.59%,711052,60.79%,000676
2017-09-30,李云晋,个人,A股,1140428,0.36%,不变,--,000676
2017-09-30,廖咏姬,个人,A股,896000,0.28%,新进,--,000676
2017-09-30,陈喆,个人,A股,860000,0.27%,新进,--,000676
2017-09-30,张佑生,个人,A股,8960000,1.04%,-2220000,-19.86%,000677
2017-09-30,杨成社,个人,A股,4980000,0.58%,不变,--,000677
2017-09-30,赵静明,个人,A股,4270301,0.49%,不变,--,000677
2017-09-30,张锦福,个人,A股,3662390,0.42%,新进,--,000677
2017-09-30,王振均,个人,A股,3103830,0.36%,新进,--,000677
2017-09-30,张平,个人,A股,3026800,0.35%,-77500,-2.50%,000677
2017-09-30,李建冬,个人,A股,4200018,0.98%,-116800,-2.71%,000678
2017-09-30,王群辉,个人,A股,2397342,0.56%,8200,0.34%,000678
2017-09-30,易刚,个人,A股,2080000,0.48%,480000,30.00%,000678
2017-09-30,陈光树,个人,A股,1670226,0.39%,1600,0.10%,000678
2017-09-30,唐建柏,个人,A股,1573200,0.37%,新进,--,000678
2017-09-30,陈小荣,个人,A股,1500000,0.35%,新进,--,000678
2017-09-30,方勇全,个人,A股,7300377,2.05%,80900,1.12%,000679
2017-09-30,曾丽辉,个人,A股,2740000,0.77%,59700,2.23%,000679
2017-09-30,刘克陵,个人,A股,2280000,0.64%,新进,--,000679
2017-09-30,易磊,个人,A股,1740700,0.49%,22000,1.28%,000679
2017-09-30,张建华,个人,A股,1663888,0.47%,不变,--,000679
2017-09-30,陈秋萍,个人,A股,1464600,0.41%,不变,--,000679
2017-09-30,李强,个人,A股,1432623,0.40%,新进,--,000679
2017-09-30,谭俊霞,个人,A股,1307320,0.37%,20400,1.59%,000679
2017-09-30,李春杰,个人,A股,4698100,0.44%,不变,--,000680
2017-09-30,李彧,个人,A股,3645171,0.34%,86200,2.42%,000680
2017-09-30,齐丽杰,个人,A股,3000000,0.28%,612000,25.63%,000680
2017-09-30,侯鳕妍,个人,A股,2433100,0.23%,不变,--,000680
2017-09-30,潘国红,个人,A股,2409900,0.23%,140991,6.21%,000680
2017-09-30,黄厄文,个人,A股,47240000,16.88%,-12903474,-21.45%,000681
2017-09-30,秦弦,个人,A股,5400000,1.93%,-1128985,-17.29%,000681
2017-09-30,鄢秀平,个人,A股,4820000,1.72%,新进,--,000681
2017-09-30,王晓春,个人,A股,4000000,1.43%,新进,--,000681
2017-09-30,马文佳,个人,A股,2809042,1.00%,不变,--,000681
2017-09-30,刘泽禄,个人,A股,9200000,0.94%,新进,--,000682
2017-09-30,梁雯雯,个人,A股,3637377,0.37%,不变,--,000682
2017-09-30,张伟,个人,A股,3209666,0.33%,-380000,-10.59%,000682
2017-09-30,王红晓,个人,A股,2432700,0.25%,新进,--,000682
2017-09-30,郑忠香,个人,A股,2300200,0.24%,200,0.01%,000682
2017-09-30,皋树歧,个人,A股,2000000,0.20%,-265000,-11.70%,000682
2017-09-30,李思宇,个人,A股,10700000,0.51%,新进,--,000683
2017-09-30,李苏江,个人,A股,6800000,0.32%,新进,--,000683
2017-09-30,尹志,个人,A股,5901000,0.28%,新进,--,000683
2017-09-30,陈琦,个人,A股,5850000,0.28%,新进,--,000683
2017-09-30,李薇,个人,A股,4520000,0.22%,新进,--,000683
2017-09-30,张克强,个人,A股,6759437,0.63%,不变,--,000685
2017-09-30,高雅萍,个人,A股,7991321,1.50%,不变,--,000687
2017-09-30,季爱琴,个人,A股,6127400,1.15%,-201,0.00%,000687
2017-09-30,蒋仕波,个人,A股,4250000,0.80%,不变,--,000687
2017-09-30,金宏,个人,A股,3967103,0.75%,-33300,-0.83%,000687
2017-09-30,于润秋,个人,A股,2698308,0.51%,新进,--,000687
2017-09-30,钟建伦,个人,A股,2332900,0.44%,-1096354,-31.97%,000687
2017-09-30,缪傅,个人,A股,2266800,0.43%,新进,--,000687
2017-09-30,陈维焕,个人,A股,2327713,0.20%,15100,0.65%,000688
2017-09-30,谭振华,个人,A股,2180000,0.19%,-1270000,-36.81%,000688
2017-09-30,张惠强,个人,A股,38500000,1.89%,新进,--,000690
2017-09-30,宁远喜,个人,A股,29090831,1.43%,不变,--,000690
2017-09-30,袁芳,个人,A股,6260786,2.16%,不变,--,000691
2017-09-30,赫洪兴,个人,A股,5897817,2.03%,不变,--,000691
2017-09-30,张健,个人,A股,4496952,1.55%,不变,--,000691
2017-09-30,陈晓红,个人,A股,4319204,1.49%,不变,--,000691
2017-09-30,何惠贤,个人,A股,3887000,1.34%,不变,--,000691
2017-09-30,周怡,个人,A股,3869685,1.33%,不变,--,000691
2017-09-30,范仁高,个人,A股,7562369,1.42%,1223460,19.30%,000692
2017-09-30,田建江,个人,A股,3617843,0.68%,18300,0.51%,000692
2017-09-30,刘惠君,个人,A股,3157659,0.59%,不变,--,000692
2017-09-30,李原琴,个人,A股,2154053,0.40%,-76350,-3.42%,000692
2017-09-30,段新华,个人,A股,2041300,0.38%,11300,0.56%,000692
2017-09-30,沈建平,个人,A股,1924077,0.36%,109800,6.05%,000692
2017-09-30,沈玉芳,个人,A股,1797772,0.34%,11600,0.65%,000692
2017-09-30,方宁,个人,A股,1745972,0.33%,新进,--,000692
2017-09-30,洪秋婷,个人,A股,5370000,1.94%,不变,--,000693
2017-09-30,孟迪丽,个人,A股,4086500,1.47%,不变,--,000693
2017-09-30,蔡秋雅,个人,A股,806588,0.29%,不变,--,000693
2017-09-30,张霞,个人,A股,5330000,2.40%,不变,--,000695
2017-09-30,李小军,个人,A股,2386300,1.08%,不变,--,000695
2017-09-30,孟小宁,个人,A股,1669952,0.75%,不变,--,000695
2017-09-30,张治安,个人,A股,1367100,0.62%,不变,--,000695
2017-09-30,赵广军,个人,A股,1240000,0.56%,不变,--,000695
2017-09-30,王建英,个人,A股,1133549,0.51%,不变,--,000695
2017-09-30,张政,个人,A股,35300776,7.78%,不变,--,000697
2017-09-30,卢伟刚,个人,A股,8610000,1.90%,-505900,-5.55%,000697
2017-09-30,余劲松,个人,A股,4381800,0.97%,不变,--,000697
2017-09-30,关卓,个人,A股,3025000,0.67%,新进,--,000697
2017-09-30,林雪莲,个人,A股,2900000,0.64%,不变,--,000697
2017-09-30,朱杰,个人,A股,3090647,0.71%,新进,--,000698
2017-09-30,潘元庆,个人,A股,3010000,0.70%,1730000,135.16%,000698
2017-09-30,俞建杨,个人,A股,2014700,0.47%,-43000,-2.09%,000698
2017-09-30,谷耀山,个人,A股,1783575,0.41%,新进,--,000698
2017-09-30,张贵勇,个人,A股,1666698,0.39%,-300,-0.02%,000698
2017-09-30,郭亦馨,个人,A股,1600000,0.37%,新进,--,000698
2017-09-30,余达金,个人,A股,1485600,0.34%,不变,--,000698
2017-09-30,沈云弟,个人,A股,4202796,0.60%,新进,--,000700
2017-09-30,夏燕,个人,A股,3047702,0.44%,新进,--,000700
2017-09-30,沈枝俏,个人,A股,2673907,0.38%,新进,--,000700
2017-09-30,谈健芳,个人,A股,1980100,0.28%,新进,--,000700
2017-09-30,张国民,个人,A股,1550000,0.22%,新进,--,000700
2017-09-30,吴知情,个人,A股,5287528,1.40%,不变,--,000701
2017-09-30,沈永富,个人,A股,4851500,1.28%,1128500,30.31%,000701
2017-09-30,王楠,个人,A股,2295300,0.61%,236500,11.49%,000701
2017-09-30,胡根华,个人,A股,1770297,0.47%,不变,--,000701
2017-09-30,肖文霞,个人,A股,1468000,0.39%,新进,--,000701
2017-09-30,符如林,个人,A股,4330553,1.62%,不变,--,000702
2017-09-30,刘岳均,个人,A股,2200000,0.83%,新进,--,000702
2017-09-30,周爽,个人,A股,1754584,0.66%,新进,--,000702
2017-09-30,郑文涌,个人,A股,1753955,0.66%,新进,--,000702
2017-09-30,张翼,个人,A股,1684200,0.63%,新进,--,000702
2017-09-30,张文素,个人,A股,1440700,0.54%,新进,--,000702
2017-09-30,陈黎明,个人,A股,1273800,0.48%,新进,--,000702
2017-09-30,曹伟娟,个人,A股,7380000,0.64%,-80000,-1.07%,000703
2017-09-30,乔楠,个人,A股,7000000,0.61%,-68400,-0.97%,000703
2017-09-30,徐建刚,个人,A股,5779312,0.50%,新进,--,000703
2017-09-30,王美花,个人,A股,5304098,1.88%,不变,--,000705
2017-09-30,王申,个人,A股,3712629,1.32%,不变,--,000705
2017-09-30,夏可云,个人,A股,2782001,0.99%,不变,--,000705
2017-09-30,韩影,个人,A股,2538847,0.90%,新进,--,000705
2017-09-30,徐虎林,个人,A股,6603008,1.42%,-421992,-6.01%,000707
2017-09-30,吴爱民,个人,A股,4021180,0.87%,新进,--,000707
2017-09-30,毛路平,个人,A股,3360300,0.72%,新进,--,000707
2017-09-30,崔宏,个人,A股,2762061,0.60%,新进,--,000707
2017-09-30,高景恒,个人,A股,2755004,0.59%,-247500,-8.24%,000707
2017-09-30,朱希濂,个人,A股,2633269,0.57%,新进,--,000707
2017-09-30,曾叶,个人,A股,2317534,0.50%,新进,--,000707
2017-09-30,张一志,个人,A股,2251400,0.49%,新进,--,000707
2017-09-30,李峰,个人,A股,3500000,0.78%,不变,--,000708
2017-09-30,查国平,个人,A股,3330000,0.74%,新进,--,000708
2017-09-30,金洪正,个人,A股,1800000,0.40%,新进,--,000708
2017-09-30,杨小丽,个人,A股,1760000,0.39%,新进,--,000708
2017-09-30,朱军利,个人,A股,13000000,0.12%,新进,--,000709
2017-09-30,傅湘涛,个人,A股,751600,0.50%,不变,--,000710
2017-09-30,方伟,个人,A股,400000,0.26%,新进,--,000710
2017-09-30,曲龙钰,个人,A股,377893,0.25%,新进,--,000710
2017-09-30,彭玉森,个人,A股,5809771,1.81%,新进,--,000711
2017-09-30,杨志茂,个人,A股,66300000,7.41%,不变,--,000712
2017-09-30,黄海晓,个人,A股,6548110,0.73%,新进,--,000712
2017-09-30,周明华,个人,A股,5040000,1.69%,不变,--,000713
2017-09-30,胡传荣,个人,A股,2090000,0.70%,-10000,-0.48%,000713
2017-09-30,黄桂玉,个人,A股,1923700,0.64%,不变,--,000713
2017-09-30,侯爱涛,个人,A股,1660841,0.56%,新进,--,000713
2017-09-30,李科,个人,A股,1624756,0.54%,不变,--,000713
2017-09-30,沈和平,个人,A股,1500000,0.50%,-300000,-16.67%,000713
2017-09-30,周霖,个人,A股,1134537,0.38%,新进,--,000713
2017-09-30,杨祖贵,个人,A股,7390406,2.65%,330000,4.67%,000715
2017-09-30,李国俊,个人,A股,1378000,0.49%,47700,3.59%,000715
2017-09-30,张铁,个人,A股,934600,0.34%,新进,--,000715
2017-09-30,崔艳,个人,A股,862300,0.31%,-5500,-0.63%,000715
2017-09-30,李玉琦,个人,A股,10000000,1.85%,不变,--,000716
2017-09-30,于晓静,个人,A股,2696700,0.50%,新进,--,000716
2017-09-30,陈颖祖,个人,A股,2273800,0.42%,新进,--,000716
2017-09-30,陈玉庆,个人,A股,11006226,0.45%,64416,0.59%,000717
2017-09-30,谢光权,个人,A股,10008800,0.41%,不变,--,000717
2017-09-30,张金钢,个人,A股,6000000,0.25%,-864600,-12.60%,000717
2017-09-30,高耀庭,个人,A股,4685664,0.19%,新进,--,000717
2017-09-30,张桂平,个人,A股,131044778,5.72%,-1,0.00%,000718
2017-09-30,张康黎,个人,A股,113270899,4.95%,不变,--,000718
2017-09-30,谈凤仙,个人,A股,24000000,1.05%,不变,--,000718
2017-09-30,宗序梅,个人,A股,10194551,1.18%,3351500,48.98%,000720
2017-09-30,张秀东,个人,A股,9921001,1.15%,不变,--,000720
2017-09-30,陈典英,个人,A股,6172990,0.71%,5300,0.09%,000720
2017-09-30,林凤钗,个人,A股,5981841,0.69%,不变,--,000720
2017-09-30,王啸宇,个人,A股,4505400,0.52%,新进,--,000720
2017-09-30,丁五行,个人,A股,2475193,0.29%,342000,16.03%,000720
2017-09-30,凌健,个人,A股,2355329,0.27%,-556971,-19.12%,000720
2017-09-30,薛海峰,个人,A股,2118000,0.49%,148000,7.51%,000721
2017-09-30,杜少武,个人,A股,2022500,0.46%,574100,39.64%,000721
2017-09-30,曾贵丰,个人,A股,7419164,1.60%,不变,--,000722
2017-09-30,林炳文,个人,A股,5189600,1.12%,不变,--,000722
2017-09-30,林桂花,个人,A股,3306768,0.71%,48800,1.50%,000722
2017-09-30,李亚明,个人,A股,2878578,0.62%,不变,--,000722
2017-09-30,林惠湖,个人,A股,2876779,0.62%,新进,--,000722
2017-09-30,李显凤,个人,A股,13652400,1.26%,新进,--,000723
2017-09-30,贾菊,个人,A股,12928018,1.20%,新进,--,000723
2017-09-30,张素芬,个人,A股,23500000,0.96%,5800000,32.77%,000727
2017-09-30,吴健,个人,A股,13685100,0.56%,新进,--,000727
2017-09-30,韩文彬,个人,A股,11583975,0.47%,-2145100,-15.62%,000727
2017-09-30,江安东,个人,A股,8700000,0.36%,新进,--,000727
2017-09-30,杨敏,个人,A股,8380601,0.34%,-57533753,-87.29%,000727
2017-09-30,贾铁斌,个人,A股,6455513,1.09%,新进,--,000731
2017-09-30,杨松丽,个人,A股,3953800,0.67%,222699,5.97%,000731
2017-09-30,翁蕾,个人,A股,2500000,0.42%,不变,--,000731
2017-09-30,叶荔,个人,A股,150000000,12.07%,不变,--,000732
2017-09-30,卞伟,个人,A股,2349000,0.50%,新进,--,000733
2017-09-30,应淑爱,个人,A股,16400793,1.55%,新进,--,000735
2017-09-30,彭程,个人,A股,4881900,1.64%,不变,--,000736
2017-09-30,张蕾,个人,A股,1414282,0.48%,3500,0.25%,000736
2017-09-30,邱鸿武,个人,A股,727000,0.24%,-151700,-17.26%,000736
2017-09-30,刘庆福,个人,A股,1941159,0.35%,30000,1.57%,000737
2017-09-30,黄世远,个人,A股,1930000,0.35%,-400000,-17.17%,000737
2017-09-30,王延峰,个人,A股,1740000,0.32%,-170000,-8.90%,000737
2017-09-30,廖旭,个人,A股,1728800,0.32%,-58000,-3.25%,000737
2017-09-30,翦利华,个人,A股,1425805,0.26%,新进,--,000737
2017-09-30,王贇,个人,A股,1418000,0.26%,新进,--,000737
2017-09-30,魏仕炜,个人,A股,1278500,0.23%,新进,--,000737
2017-09-30,卢玲英,个人,A股,6439090,0.46%,774937,13.68%,000751
2017-09-30,钟继华,个人,A股,5648200,0.40%,新进,--,000751
2017-09-30,朱世国,个人,A股,4530000,0.32%,新进,--,000751
2017-09-30,陈奇恩,个人,A股,4400000,0.31%,不变,--,000751
2017-09-30,周国均,个人,A股,4348400,0.31%,新进,--,000751
2017-09-30,蔡辉辉,个人,A股,3500000,0.25%,新进,--,000751
2017-09-30,纪彦禹,个人,A股,3076184,0.22%,新进,--,000751
2017-09-30,马淑芬,个人,A股,26391329,10.01%,15400,0.06%,000752
2017-09-30,陈金建,个人,A股,4306902,1.63%,新进,--,000752
2017-09-30,刘丹,个人,A股,2930337,1.11%,206600,7.59%,000752
2017-09-30,戴斌,个人,A股,2134300,0.81%,新进,--,000752
2017-09-30,陈金华,个人,A股,1332500,0.51%,新进,--,000752
2017-09-30,徐开东,个人,A股,6191485,0.76%,632700,11.38%,000753
2017-09-30,林美凤,个人,A股,3146920,0.38%,不变,--,000753
2017-09-30,曹慧利,个人,A股,2660300,0.32%,不变,--,000753
2017-09-30,陈君,个人,A股,2600010,0.32%,不变,--,000753
2017-09-30,张亮,个人,A股,2536126,0.31%,新进,--,000753
2017-09-30,陈钢,个人,A股,2500000,0.53%,不变,--,000755
2017-09-30,顾鹤富,个人,A股,1578154,0.34%,不变,--,000755
2017-09-30,张元贵,个人,A股,1132600,0.24%,不变,--,000755
2017-09-30,林瀚,个人,A股,1069685,0.23%,不变,--,000755
2017-09-30,杨旭,个人,A股,990300,0.21%,不变,--,000755
2017-09-30,李国英,个人,A股,952100,0.20%,不变,--,000755
2017-09-30,胡客满,个人,A股,2642980,0.59%,-69920,-2.58%,000757
2017-09-30,海燕,个人,A股,4267780,0.22%,新进,--,000758
2017-09-30,方粉兰,个人,A股,4000000,0.20%,新进,--,000758
2017-09-30,左建强,个人,A股,3090444,0.47%,新进,--,000760
2017-09-30,陈倩影,个人,A股,2797040,0.43%,新进,--,000760
2017-09-30,周小兵,个人,A股,2406800,0.37%,新进,--,000760
2017-09-30,马腾云,个人,A股,13298900,0.42%,新进,--,000761
2017-09-30,陈进鸿,个人,A股,5077500,0.16%,新进,--,000761
2017-09-30,俞晓帆,个人,B股,4409896,0.14%,新进,--,000761
2017-09-30,刘师红,个人,B股,3859240,0.12%,新进,--,000761
2017-09-30,顾培顺,个人,A股,2468900,0.52%,新进,--,000762
2017-09-30,张福祥,个人,A股,2377402,0.50%,不变,--,000762
2017-09-30,沈琼,个人,A股,2133900,0.45%,新进,--,000762
2017-09-30,莫洛金,个人,A股,1975800,0.42%,新进,--,000762
2017-09-30,俞杰,个人,A股,5341860,1.19%,-80270,-1.48%,000766
2017-09-30,魏玉森,个人,A股,5189445,1.16%,不变,--,000766
2017-09-30,李淑华,个人,A股,4652802,1.04%,1764187,61.07%,000766
2017-09-30,郭德祥,个人,A股,3422300,0.76%,4000,0.12%,000766
2017-09-30,包桢臻,个人,A股,3036007,0.68%,-301395,-9.03%,000766
2017-09-30,林纯荣,个人,A股,3004351,0.67%,新进,--,000766
2017-09-30,徐晟,个人,A股,2742001,0.61%,-688999,-20.08%,000766
2017-09-30,赵凯,个人,A股,12776565,0.57%,7351465,135.51%,000767
2017-09-30,傅本义,个人,A股,5446600,0.24%,新进,--,000767
2017-09-30,徐方宏,个人,A股,3611771,0.16%,新进,--,000767
2017-09-30,呼临平,个人,A股,2991100,0.13%,1000000,50.22%,000767
2017-09-30,迟新杰,个人,A股,1540014,0.40%,611014,65.77%,000777
2017-09-30,李天生,个人,A股,1140000,0.30%,新进,--,000777
2017-09-30,王翠梅,个人,A股,1042600,0.27%,不变,--,000777
2017-09-30,马静,个人,A股,978805,0.26%,-131200,-11.82%,000777
2017-09-30,刘剑泉,个人,A股,840836,0.22%,新进,--,000777
2017-09-30,胡煜君,个人,A股,13288555,0.36%,4422335,49.88%,000778
2017-09-30,谢兰娟,个人,A股,8401800,0.23%,-530000,-5.93%,000778
2017-09-30,侯钦源,个人,A股,8107158,0.22%,新进,--,000778
2017-09-30,吴建炎,个人,A股,7360436,0.20%,新进,--,000778
2017-09-30,叶利其,个人,A股,5780000,0.16%,不变,--,000778
2017-09-30,李格兰,个人,A股,5683364,0.16%,新进,--,000778
2017-09-30,赵建平,个人,A股,5000000,2.68%,不变,--,000779
2017-09-30,王坚宏,个人,A股,3020000,1.62%,不变,--,000779
2017-09-30,奇鹏,个人,A股,1899073,1.02%,不变,--,000779
2017-09-30,陈振群,个人,A股,1509800,0.81%,新进,--,000779
2017-09-30,姚建平,个人,A股,2788880,0.27%,-900000,-24.40%,000780
2017-09-30,梅林,个人,A股,2110800,0.21%,新进,--,000780
2017-09-30,郝军扬,个人,A股,2056157,0.20%,新进,--,000780
2017-09-30,徐巍,个人,A股,2000000,0.20%,不变,--,000780
2017-09-30,梅东,个人,A股,1520100,0.15%,新进,--,000780
2017-09-30,魏一凡,个人,A股,3120078,0.97%,145000,4.87%,000782
2017-09-30,薛建新,个人,A股,2609500,0.81%,349500,15.46%,000782
2017-09-30,孙中兴,个人,A股,1995900,0.62%,不变,--,000782
2017-09-30,魏力军,个人,A股,1787100,0.56%,95900,5.67%,000782
2017-09-30,程俊香,个人,A股,1680000,0.52%,新进,--,000782
2017-09-30,金红,个人,A股,1670000,0.52%,330000,24.63%,000782
2017-09-30,史双富,个人,A股,1641400,0.51%,189200,13.03%,000782
2017-09-30,沈坚杰,个人,A股,1450010,0.45%,-5000,-0.34%,000782
2017-09-30,张景春,个人,A股,1770070,0.70%,370070,26.43%,000785
2017-09-30,胡菲,个人,A股,1600000,0.64%,新进,--,000785
2017-09-30,张利,个人,A股,1381393,0.55%,72500,5.54%,000785
2017-09-30,陈晓寒,个人,A股,1220000,0.49%,-6000,-0.49%,000785
2017-09-30,汪孝轩,个人,A股,1011800,0.40%,-364200,-26.47%,000785
2017-09-30,陈曦,个人,A股,1009000,0.40%,新进,--,000785
2017-09-30,王世忱,个人,A股,17910456,3.21%,-783100,-4.19%,000788
2017-09-30,刘巍建,个人,A股,12996000,2.33%,71000,0.55%,000788
2017-09-30,高春雷,个人,A股,9219621,1.65%,不变,--,000788
2017-09-30,余惠忠,个人,A股,12308617,2.01%,新进,--,000789
2017-09-30,金涛,个人,A股,3458265,0.56%,654665,23.35%,000789
2017-09-30,王安全,个人,A股,21551128,5.00%,不变,--,000790
2017-09-30,罗国秀,个人,A股,19279254,4.48%,不变,--,000790
2017-09-30,聂富全,个人,A股,11462242,2.66%,-7000,-0.06%,000790
2017-09-30,丁书干,个人,A股,7650000,1.78%,2150000,39.09%,000790
2017-09-30,马化勉,个人,A股,4499531,1.04%,不变,--,000790
2017-09-30,林洁君,个人,A股,4149300,0.96%,新进,--,000790
2017-09-30,赵顺斌,个人,A股,3406100,0.79%,不变,--,000790
2017-09-30,曹立恒,个人,A股,2409520,0.56%,新进,--,000790
2017-09-30,安光宁,个人,A股,3842992,0.40%,1226000,46.85%,000791
2017-09-30,张泽鑫,个人,A股,1151800,0.12%,新进,--,000791
2017-09-30,陈清义,个人,A股,1058300,0.11%,新进,--,000791
2017-09-30,王一虹,个人,A股,29714398,1.08%,不变,--,000792
2017-09-30,邢建民,个人,A股,2000000,0.29%,-400000,-16.67%,000795
2017-09-30,吴恒华,个人,A股,1672851,0.24%,-100000,-5.64%,000795
2017-09-30,胡一民,个人,A股,1200000,0.17%,不变,--,000795
2017-09-30,刘奕彤,个人,A股,1030055,0.15%,-959300,-48.22%,000795
2017-09-30,魏威,个人,A股,1000000,0.15%,新进,--,000795
2017-09-30,褚红亮,个人,A股,1000000,0.15%,新进,--,000795
2017-09-30,管霭霞,个人,A股,960000,0.14%,-610000,-38.85%,000795
2017-09-30,廖仲钦,个人,A股,938000,0.14%,新进,--,000795
2017-09-30,郑慧龙,个人,A股,893800,0.13%,新进,--,000795
2017-09-30,梁学军,个人,A股,2108662,0.86%,新进,--,000796
2017-09-30,孙希阁,个人,A股,1840890,0.75%,不变,--,000796
2017-09-30,董敏,个人,A股,21580000,2.52%,-1069100,-4.72%,000797
2017-09-30,寿稚岗,个人,A股,7280000,0.85%,-1950256,-21.13%,000797
2017-09-30,苏志伟,个人,A股,6669048,0.78%,不变,--,000797
2017-09-30,申亚林,个人,A股,5076500,0.59%,-830100,-14.05%,000797
2017-09-30,丁春林,个人,A股,4660020,0.54%,不变,--,000797
2017-09-30,杜晚春,个人,A股,4398636,1.38%,376111,9.35%,000798
2017-09-30,陈金锋,个人,A股,3817121,1.20%,不变,--,000798
2017-09-30,胡光剑,个人,A股,2189006,0.69%,-25900,-1.17%,000798
2017-09-30,瞿惠玲,个人,A股,2830007,1.26%,-422400,-12.99%,000799
2017-09-30,张寿清,个人,A股,2437300,1.09%,不变,--,000799
2017-09-30,周军,个人,A股,1798018,0.80%,新进,--,000799
2017-09-30,曲海鹏,个人,A股,28591872,2.03%,不变,--,000800
2017-09-30,何海潮,个人,A股,14702394,1.04%,-7544400,-33.91%,000800
2017-09-30,宋书亚,个人,A股,16426900,1.61%,不变,--,000801
2017-09-30,张东生,个人,A股,2987913,0.79%,不变,--,000802
2017-09-30,黄少森,个人,A股,2949902,0.78%,新进,--,000802
2017-09-30,许伟明,个人,A股,2120800,0.56%,新进,--,000802
2017-09-30,张东霞,个人,A股,1835600,0.48%,新进,--,000802
2017-09-30,樊建平,个人,A股,5907300,0.85%,新进,--,000806
2017-09-30,赵忠清,个人,A股,2962000,0.42%,新进,--,000806
2017-09-30,殷丹静,个人,A股,2341800,0.34%,119800,5.39%,000806
2017-09-30,王武,个人,A股,11880000,0.69%,新进,--,000807
2017-09-30,徐立华,个人,A股,4754379,0.58%,-345621,-6.78%,000809
2017-09-30,刘柏权,个人,A股,4511968,0.55%,-1459300,-24.44%,000809
2017-09-30,邵秀红,个人,A股,4428362,0.54%,不变,--,000809
2017-09-30,陈晓汀,个人,A股,4188000,0.51%,不变,--,000809
2017-09-30,罗曾苗,个人,A股,4174100,0.51%,5500,0.13%,000809
2017-09-30,程洪亮,个人,A股,4133600,0.50%,不变,--,000809
2017-09-30,周燕青,个人,A股,4071278,0.49%,新进,--,000809
2017-09-30,林伟建,个人,A股,51467099,12.42%,32758060,175.09%,000810
2017-09-30,谢雄清,个人,A股,30428051,7.34%,不变,--,000810
2017-09-30,李普,个人,A股,14683310,3.54%,5873324,66.67%,000810
2017-09-30,叶晓彬,个人,A股,10204926,2.46%,5593970,121.32%,000810
2017-09-30,施驰,个人,A股,9192631,2.22%,不变,--,000810
2017-09-30,王晓晖,个人,A股,3579972,0.86%,新进,--,000810
2017-09-30,彭迪蒙,个人,A股,5758800,0.95%,1920000,50.02%,000811
2017-09-30,张汉明,个人,A股,3314044,0.55%,新进,--,000811
2017-09-30,沈若骏,个人,A股,9987097,2.24%,72001,0.73%,000812
2017-09-30,王剑,个人,A股,4453044,0.76%,不变,--,000813
2017-09-30,杨昌英,个人,A股,3063150,0.52%,不变,--,000813
2017-09-30,邹健,个人,A股,2648036,0.45%,1069515,67.75%,000813
2017-09-30,黄彪,个人,A股,1817036,0.31%,-434864,-19.31%,000813
2017-09-30,高雅萍,个人,A股,11472863,3.62%,不变,--,000815
2017-09-30,季爱琴,个人,A股,7044078,2.22%,不变,--,000815
2017-09-30,蒋仕波,个人,A股,6396302,2.02%,不变,--,000815
2017-09-30,方艺华,个人,A股,2340000,0.74%,53400,2.34%,000815
2017-09-30,蒋水良,个人,A股,2271584,0.72%,不变,--,000815
2017-09-30,陈博屏,个人,A股,13895472,1.04%,新进,--,000816
2017-09-30,徐惠工,个人,A股,34650000,5.03%,新进,--,000818
2017-09-30,方威,个人,A股,31350000,4.55%,-34650000,-52.50%,000818
2017-09-30,林加团,个人,A股,5460000,0.79%,新进,--,000818
2017-09-30,王立军,个人,A股,4497895,0.65%,100,0.00%,000818
2017-09-30,王益民,个人,A股,4065683,0.59%,不变,--,000818
2017-09-30,刘伟,个人,A股,4050000,0.59%,400000,10.96%,000818
2017-09-30,陈家兴,个人,A股,3042501,1.12%,166439,5.79%,000819
2017-09-30,戴新华,个人,A股,1925733,0.71%,不变,--,000819
2017-09-30,刘月华,个人,A股,1682447,0.62%,不变,--,000819
2017-09-30,张寿清,个人,A股,1155127,0.43%,不变,--,000819
2017-09-30,周淑齐,个人,A股,1000000,0.37%,不变,--,000819
2017-09-30,李朝晖,个人,A股,783700,0.29%,新进,--,000819
2017-09-30,徐海康,个人,A股,771131,0.28%,新进,--,000819
2017-09-30,文菁华,个人,A股,30802254,10.71%,新进,--,000820
2017-09-30,曹雅群,个人,A股,24941385,8.67%,新进,--,000820
2017-09-30,张寿清,个人,A股,11036070,3.84%,新进,--,000820
2017-09-30,陈文,个人,A股,4763117,1.66%,-160504,-3.26%,000820
2017-09-30,贾云鹏,个人,A股,8708401,0.97%,不变,--,000822
2017-09-30,章浩,个人,A股,8126433,0.91%,52500,0.65%,000822
2017-09-30,戴建国,个人,A股,5752100,0.64%,新进,--,000822
2017-09-30,周火寿,个人,A股,3685000,0.41%,1321700,55.93%,000822
2017-09-30,周强光,个人,A股,5361759,1.00%,1300,0.02%,000823
2017-09-30,杨俊诚,个人,A股,13000300,0.23%,新进,--,000825
2017-09-30,陈海青,个人,A股,11584800,0.20%,新进,--,000825
2017-09-30,易建东,个人,A股,10719800,0.19%,新进,--,000825
2017-09-30,袁仰龙,个人,A股,12706845,1.22%,4998400,64.84%,000828
2017-09-30,孔凡强,个人,A股,8820069,0.85%,-889391,-9.16%,000828
2017-09-30,梁伟,个人,A股,4710978,0.45%,113900,2.48%,000828
2017-09-30,刘巧华,个人,A股,2700000,0.26%,不变,--,000828
2017-09-30,傅建平,个人,A股,20080000,2.11%,2280000,12.81%,000829
2017-09-30,马海军,个人,A股,12000000,1.26%,新进,--,000829
2017-09-30,陈夏雨,个人,A股,7784809,0.82%,不变,--,000829
2017-09-30,吕立芬,个人,A股,10011200,0.68%,新进,--,000830
2017-09-30,金雪松,个人,A股,8957558,0.61%,新进,--,000830
2017-09-30,何发秀,个人,A股,8261391,0.56%,不变,--,000830
2017-09-30,陈文,个人,A股,4388100,0.45%,新进,--,000831
2017-09-30,柏斯荣,个人,A股,3450068,0.35%,不变,--,000831
2017-09-30,常清,个人,A股,3234042,0.33%,新进,--,000831
2017-09-30,方少瑜,个人,A股,10769458,2.85%,不变,--,000833
2017-09-30,列凤媚,个人,A股,5510656,1.46%,不变,--,000833
2017-09-30,梁淑莲,个人,A股,4073729,1.08%,不变,--,000833
2017-09-30,何春雷,个人,A股,3123454,0.83%,1792454,134.67%,000833
2017-09-30,李臣,个人,A股,1954269,0.52%,不变,--,000833
2017-09-30,张斌,个人,A股,1584856,0.42%,-900,-0.06%,000833
2017-09-30,刘立杰,个人,A股,1325110,0.35%,新进,--,000833
2017-09-30,邱晓勤,个人,A股,16252956,5.37%,不变,--,000835
2017-09-30,张惠丰,个人,A股,2264300,0.75%,不变,--,000835
2017-09-30,吉贵宝,个人,A股,1800000,0.59%,-20018,-1.10%,000835
2017-09-30,王明金,个人,A股,1327800,0.44%,新进,--,000835
2017-09-30,涂素梅,个人,A股,1307550,0.43%,新进,--,000835
2017-09-30,房红梅,个人,A股,54377062,4.60%,不变,--,000836
2017-09-30,何昌珍,个人,A股,21353100,1.81%,不变,--,000836
2017-09-30,黄文佳,个人,A股,13700000,1.16%,不变,--,000836
2017-09-30,唐建红,个人,A股,12000000,1.01%,不变,--,000836
2017-09-30,王京先,个人,A股,3406300,0.58%,1508100,79.45%,000837
2017-09-30,顾鹤富,个人,A股,3133877,0.54%,1044100,49.96%,000837
2017-09-30,朱华德,个人,A股,2406560,0.41%,528437,28.14%,000837
2017-09-30,张治中,个人,A股,2120000,0.36%,不变,--,000837
2017-09-30,陆燚,个人,A股,2109862,0.36%,新进,--,000837
2017-09-30,李晋,个人,A股,2028800,0.35%,不变,--,000837
2017-09-30,李逸微,个人,A股,3995085,0.63%,不变,--,000838
2017-09-30,翟淑萍,个人,A股,3000000,0.47%,不变,--,000838
2017-09-30,蒋文涛,个人,A股,1857300,0.29%,不变,--,000838
2017-09-30,蔡金英,个人,A股,1830500,0.29%,不变,--,000838
2017-09-30,张兴,个人,A股,1638650,0.26%,不变,--,000838
2017-09-30,吕爱连,个人,A股,1631400,0.26%,新进,--,000838
2017-09-30,程浩生,个人,A股,1447600,0.23%,新进,--,000838
2017-09-30,周伟青,个人,A股,13856550,0.35%,新进,--,000839
2017-09-30,林瑞良,个人,A股,12898000,0.33%,不变,--,000839
2017-09-30,武晓琨,个人,A股,10897122,0.28%,不变,--,000839
2017-09-30,林梅英,个人,A股,8287503,0.21%,13600,0.16%,000839
2017-09-30,袁园,个人,A股,7335303,0.19%,新进,--,000839
2017-09-30,林仁平,个人,A股,3463800,0.37%,不变,--,000850
2017-09-30,李军训,个人,A股,2557022,0.27%,377100,17.30%,000850
2017-09-30,田建明,个人,A股,2550182,0.27%,新进,--,000850
2017-09-30,李宇剑,个人,A股,2346700,0.25%,-40000,-1.68%,000850
2017-09-30,王孝花,个人,A股,2284414,0.24%,不变,--,000850
2017-09-30,徐先康,个人,A股,2268613,0.24%,-80000,-3.41%,000850
2017-09-30,冯鹏飞,个人,A股,4670000,0.90%,-397468,-7.84%,000851
2017-09-30,汪雪梅,个人,A股,4589018,0.88%,987000,27.40%,000851
2017-09-30,胡春如,个人,A股,4383414,0.84%,1575993,56.14%,000851
2017-09-30,杨光,个人,A股,2650121,0.51%,89100,3.48%,000851
2017-09-30,刘文涛,个人,A股,2318626,0.45%,671700,40.79%,000851
2017-09-30,袁佩良,个人,A股,2200000,0.42%,100000,4.76%,000851
2017-09-30,韦柳文,个人,A股,1716867,0.33%,不变,--,000851
2017-09-30,林伟峰,个人,A股,1601207,0.27%,新进,--,000852
2017-09-30,傅桂容,个人,A股,971700,0.16%,新进,--,000852
2017-09-30,冯栋国,个人,A股,912677,0.15%,新进,--,000852
2017-09-30,李才华,个人,A股,1158900,0.51%,新进,--,000856
2017-09-30,詹志敏,个人,A股,462260,0.20%,1700,0.37%,000856
2017-09-30,孙丽英,个人,A股,440000,0.19%,新进,--,000856
2017-09-30,王莉萍,个人,A股,426000,0.19%,新进,--,000856
2017-09-30,孔庆元,个人,A股,420700,0.19%,新进,--,000856
2017-09-30,蔡碧琴,个人,A股,420000,0.19%,新进,--,000856
2017-09-30,张兵峰,个人,A股,6008922,0.81%,-171078,-2.77%,000859
2017-09-30,张流绪,个人,A股,4744200,0.64%,不变,--,000859
2017-09-30,刘英,个人,A股,4216730,0.57%,-250000,-5.60%,000859
2017-09-30,丁闵,个人,A股,3012700,0.41%,70000,2.38%,000859
2017-09-30,梁玉,个人,A股,2100220,0.28%,-154780,-6.86%,000859
2017-09-30,岳玉峰,个人,A股,1814500,0.25%,不变,--,000859
2017-09-30,杨光,个人,A股,8697035,1.52%,2616782,43.04%,000860
2017-09-30,邵建聪,个人,A股,114710000,6.13%,不变,--,000861
2017-09-30,邵建明,个人,A股,33072500,1.77%,不变,--,000861
2017-09-30,罗胜豪,个人,A股,7700000,0.41%,不变,--,000861
2017-09-30,陈泽钦,个人,A股,5543343,0.30%,不变,--,000861
2017-09-30,林平,个人,A股,4174100,0.22%,不变,--,000861
2017-09-30,蒋伟行,个人,A股,3697900,0.20%,589600,18.97%,000861
2017-09-30,车宏伟,个人,A股,3000060,0.16%,新进,--,000861
2017-09-30,简炼炜,个人,A股,8230000,2.46%,不变,--,000862
2017-09-30,李莞生,个人,A股,5000000,1.50%,不变,--,000862
2017-09-30,韩余进,个人,A股,2455573,0.73%,不变,--,000862
2017-09-30,黄辉,个人,A股,2241429,0.67%,不变,--,000862
2017-09-30,林文威,个人,A股,2226900,0.67%,不变,--,000862
2017-09-30,张燕,个人,A股,2068881,0.62%,不变,--,000862
2017-09-30,钱晓红,个人,A股,1916912,0.57%,不变,--,000862
2017-09-30,武盼盼,个人,A股,1598800,0.48%,不变,--,000862
2017-09-30,黄卫枝,个人,A股,151609659,16.54%,不变,--,000863
2017-09-30,叶宸瑜,个人,A股,2771900,0.40%,新进,--,000868
2017-09-30,刘先华,个人,A股,2759144,0.40%,新进,--,000868
2017-09-30,陈建平,个人,A股,2400000,0.35%,-63047,-2.56%,000868
2017-09-30,于祝文,个人,A股,2079100,0.30%,新进,--,000868
2017-09-30,章绍基,个人,A股,2000000,0.29%,新进,--,000868
2017-09-30,汪逸飞,个人,A股,1833200,0.26%,新进,--,000868
2017-09-30,刘大学,个人,A股,1678800,0.24%,新进,--,000868
2017-09-30,宋富,个人,A股,3424100,0.26%,不变,--,000875
2017-09-30,宋美珍,个人,A股,3224264,0.25%,249600,8.39%,000875
2017-09-30,李巍峰,个人,A股,3000000,0.23%,不变,--,000875
2017-09-30,苏子骞,个人,A股,1545564,0.12%,新进,--,000875
2017-09-30,曹雪芹,个人,A股,4649053,0.53%,不变,--,000877
2017-09-30,焦雪,个人,A股,3337945,0.38%,10700,0.32%,000877
2017-09-30,董北峰,个人,A股,2346872,0.27%,新进,--,000877
2017-09-30,刘丰志,个人,A股,2049700,0.23%,新进,--,000877
2017-09-30,李才华,个人,A股,1679600,0.19%,新进,--,000877
2017-09-30,孙莉,个人,A股,1601500,0.18%,新进,--,000877
2017-09-30,周志勇,个人,A股,8154300,0.58%,77200,0.96%,000878
2017-09-30,万忠波,个人,A股,6380823,0.45%,1519023,31.24%,000878
2017-09-30,梁建业,个人,A股,5737555,0.41%,新进,--,000878
2017-09-30,吴海燕,个人,A股,2334300,1.73%,-594202,-20.29%,000880
2017-09-30,马瑞东,个人,A股,1072800,0.79%,200500,22.99%,000880
2017-09-30,张晓天,个人,A股,764283,0.57%,新进,--,000880
2017-09-30,吕志炎,个人,A股,9749539,3.17%,1652324,20.41%,000881
2017-09-30,沈昌宇,个人,A股,3294763,1.07%,-10500,-0.32%,000881
2017-09-30,孙大鹏,个人,A股,2853254,0.93%,新进,--,000881
2017-09-30,伍运川,个人,A股,9661500,0.43%,3550300,58.09%,000882
2017-09-30,郑韬,个人,A股,7909300,0.36%,新进,--,000882
2017-09-30,刘洪军,个人,A股,5757200,0.26%,不变,--,000882
2017-09-30,王小莉,个人,A股,5710000,0.26%,60000,1.06%,000882
2017-09-30,林倩,个人,A股,5239873,0.24%,不变,--,000882
2017-09-30,张坤,个人,A股,5000000,0.22%,不变,--,000882
2017-09-30,邓忠祥,个人,A股,24390000,0.46%,-1364642,-5.30%,000883
2017-09-30,郑向阳,个人,A股,432600,0.10%,新进,--,000885
2017-09-30,夏忠宝,个人,A股,363200,0.09%,64400,21.55%,000885
2017-09-30,唐阳刚,个人,A股,350000,0.08%,38100,12.22%,000885
2017-09-30,蔡云杰,个人,A股,319000,0.07%,新进,--,000885
2017-09-30,胡景,个人,A股,11637886,1.21%,新进,--,000886
2017-09-30,刘英波,个人,A股,5832724,0.60%,838264,16.78%,000886
2017-09-30,吴国春,个人,A股,4452200,0.46%,新进,--,000886
2017-09-30,殷美兰,个人,A股,7500000,0.62%,新进,--,000887
2017-09-30,李辰婕,个人,A股,3500000,0.79%,不变,--,000889
2017-09-30,周云洲,个人,A股,3400500,0.76%,不变,--,000889
2017-09-30,孙祥文,个人,A股,2960000,0.66%,不变,--,000889
2017-09-30,林建加,个人,A股,2300016,0.52%,不变,--,000889
2017-09-30,徐朋,个人,A股,3542800,0.93%,743444,26.56%,000890
2017-09-30,蒋伯超,个人,A股,2220075,0.58%,100000,4.72%,000890
2017-09-30,曹文浩,个人,A股,1569200,0.41%,新进,--,000890
2017-09-30,谷志鹏,个人,A股,1156000,0.30%,新进,--,000890
2017-09-30,张杰,个人,A股,1000000,0.26%,新进,--,000890
2017-09-30,曾平,个人,A股,6297000,1.77%,-1093000,-14.79%,000892
2017-09-30,张培武,个人,A股,2145000,0.60%,新进,--,000892
2017-09-30,尹义洪,个人,A股,2033515,0.57%,新进,--,000892
2017-09-30,高敏杰,个人,A股,2000000,0.56%,新进,--,000892
2017-09-30,戴夏兴,个人,A股,2434063,0.61%,不变,--,000893
2017-09-30,苏维柱,个人,A股,2396500,0.60%,63900,2.74%,000893
2017-09-30,刘晓宇,个人,A股,2185251,0.55%,10000,0.46%,000893
2017-09-30,张明敏,个人,A股,1760351,0.44%,3200,0.18%,000893
2017-09-30,孙福斌,个人,A股,1732597,0.43%,新进,--,000893
2017-09-30,林芸,个人,A股,5177600,0.80%,-498874,-8.79%,000899
2017-09-30,欧林敏,个人,A股,4539999,0.70%,1591101,53.96%,000899
2017-09-30,刘小倩,个人,A股,3239100,0.50%,-450000,-12.20%,000899
2017-09-30,林军,个人,A股,3196100,0.49%,新进,--,000899
2017-09-30,林祥华,个人,A股,3056400,0.47%,-480700,-13.59%,000899
2017-09-30,何秋娣,个人,A股,1645693,0.25%,新进,--,000899
2017-09-30,白国义,个人,A股,29139850,1.92%,新进,--,000900
2017-09-30,杨才学,个人,A股,14826118,1.27%,不变,--,000902
2017-09-30,邓永安,个人,A股,5904859,0.37%,新进,--,000903
2017-09-30,李维明,个人,A股,5824600,0.37%,新进,--,000903
2017-09-30,孙照华,个人,A股,4636572,0.29%,新进,--,000903
2017-09-30,林雍容,个人,A股,4000000,0.25%,新进,--,000903
2017-09-30,薛韬,个人,A股,1934310,0.36%,不变,--,000905
2017-09-30,刘信,个人,A股,1593700,0.30%,新进,--,000905
2017-09-30,林成发,个人,A股,1387000,0.26%,282500,25.58%,000905
2017-09-30,王怀林,个人,A股,1234300,0.23%,新进,--,000905
2017-09-30,陈梓帆,个人,A股,1192393,0.22%,新进,--,000905
2017-09-30,宁屾,个人,A股,1041699,0.20%,不变,--,000905
2017-09-30,海拉提·阿不力米提,个人,A股,957118,0.18%,新进,--,000905
2017-09-30,翟育豹,个人,A股,890636,0.17%,-88700,-9.06%,000905
2017-09-30,齐树建,个人,A股,2275000,0.53%,不变,--,000906
2017-09-30,俞晓祥,个人,A股,1780000,0.41%,新进,--,000906
2017-09-30,吉玥,个人,A股,1655899,0.39%,27398,1.68%,000906
2017-09-30,李爱武,个人,A股,1534094,0.36%,130644,9.31%,000906
2017-09-30,张为民,个人,A股,1068539,0.25%,新进,--,000906
2017-09-30,李彤,个人,A股,41848998,7.60%,不变,--,000908
2017-09-30,刘华,个人,A股,11037250,2.00%,不变,--,000908
2017-09-30,简卫光,个人,A股,11037250,2.00%,不变,--,000908
2017-09-30,李贵山,个人,A股,10780000,1.96%,不变,--,000908
2017-09-30,周铃,个人,A股,2505720,0.85%,不变,--,000909
2017-09-30,刘曜,个人,A股,1943602,0.66%,不变,--,000909
2017-09-30,黎壮宇,个人,A股,1570000,0.53%,不变,--,000909
2017-09-30,聂荣孙,个人,A股,1177800,0.40%,不变,--,000909
2017-09-30,张鉴玮,个人,A股,976400,0.33%,-800,-0.08%,000909
2017-09-30,黄雪萍,个人,A股,910500,0.31%,不变,--,000909
2017-09-30,王继光,个人,A股,2270000,0.70%,470000,26.11%,000911
2017-09-30,赖桂英,个人,A股,1079400,0.33%,新进,--,000911
2017-09-30,龚细生,个人,A股,976653,0.30%,103700,11.88%,000911
2017-09-30,金丕川,个人,A股,673400,0.21%,新进,--,000911
2017-09-30,李润祥,个人,A股,3750000,0.64%,新进,--,000912
2017-09-30,沈建法,个人,A股,3742300,0.64%,新进,--,000912
2017-09-30,岳丽英,个人,A股,2664952,0.46%,新进,--,000912
2017-09-30,苟宏,个人,A股,1880000,0.32%,-120000,-6.00%,000912
2017-09-30,魏月栽,个人,A股,1737200,0.30%,497300,40.11%,000912
2017-09-30,高雅萍,个人,A股,13928055,3.07%,132800,0.96%,000913
2017-09-30,赵建平,个人,A股,9000000,1.98%,不变,--,000913
2017-09-30,赵芝虹,个人,A股,8300000,0.64%,3430000,70.43%,000917
2017-09-30,蓝歆旻,个人,A股,7441101,0.57%,新进,--,000917
2017-09-30,陈达超,个人,A股,3025273,0.23%,新进,--,000917
2017-09-30,过鑫富,个人,A股,7937900,0.44%,新进,--,000918
2017-09-30,张树新,个人,A股,6013668,0.33%,721071,13.62%,000918
2017-09-30,张民一,个人,A股,4091100,0.23%,不变,--,000918
2017-09-30,司有山,个人,A股,5098300,1.01%,131400,2.65%,000919
2017-09-30,白宪超,个人,A股,4272500,0.85%,150000,3.64%,000919
2017-09-30,朱张土,个人,A股,2558026,0.61%,949783,59.06%,000920
2017-09-30,李令军,个人,A股,1900700,0.45%,不变,--,000920
2017-09-30,叶彩芬,个人,A股,1306579,0.31%,新进,--,000920
2017-09-30,裘兴祥,个人,A股,1200000,0.28%,新进,--,000920
2017-09-30,钟以隆,个人,A股,1150000,0.27%,新进,--,000920
2017-09-30,杨楠,个人,A股,1019000,0.24%,新进,--,000920
2017-09-30,张少武,个人,A股,7200000,0.53%,不变,--,000921
2017-09-30,陈家强,个人,A股,3559800,0.78%,1400,0.04%,000922
2017-09-30,陈佳琪,个人,A股,2877665,0.63%,不变,--,000922
2017-09-30,郭新华,个人,A股,2250000,0.49%,新进,--,000922
2017-09-30,朱瑞,个人,A股,2005100,0.44%,86000,4.48%,000922
2017-09-30,彭皓喆,个人,A股,1640400,0.36%,-1224000,-42.73%,000922
2017-09-30,关晓光,个人,A股,1445300,0.32%,-10000,-0.69%,000922
2017-09-30,夏智武,个人,A股,1285400,0.28%,新进,--,000922
2017-09-30,孔祥华,个人,A股,1264300,0.28%,-165700,-11.59%,000922
2017-09-30,范自强,个人,A股,991500,0.50%,新进,--,000923
2017-09-30,陆伟健,个人,A股,720700,0.36%,-278502,-27.87%,000923
2017-09-30,黄炯亮,个人,A股,712500,0.36%,新进,--,000923
2017-09-30,林伟洲,个人,A股,709000,0.36%,134600,23.43%,000923
2017-09-30,颜少青,个人,A股,701100,0.35%,不变,--,000923
2017-09-30,黄彩霞,个人,A股,660000,0.33%,新进,--,000923
2017-09-30,陈利源,个人,A股,648673,0.33%,新进,--,000923
2017-09-30,洪涛,个人,A股,20622600,2.17%,-1715000,-7.68%,000926
2017-09-30,谭功炎,个人,A股,12781535,1.35%,不变,--,000926
2017-09-30,张伟,个人,A股,9302726,0.58%,新进,--,000927
2017-09-30,罗晋渝,个人,A股,5030000,0.32%,28200,0.56%,000927
2017-09-30,周珮武,个人,A股,4150299,0.26%,不变,--,000927
2017-09-30,王艳,个人,A股,4089300,0.26%,不变,--,000927
2017-09-30,叶小青,个人,A股,4026300,0.25%,不变,--,000927
2017-09-30,张大龙,个人,A股,9109900,1.23%,-7180,-0.08%,000928
2017-09-30,贾光庆,个人,A股,4500000,0.61%,新进,--,000928
2017-09-30,黄维平,个人,A股,4035329,0.54%,新进,--,000928
2017-09-30,杨周彝,个人,A股,3833380,0.52%,新进,--,000928
2017-09-30,丁大德,个人,A股,2974504,1.60%,-117751,-3.81%,000929
2017-09-30,张林,个人,A股,2937582,1.58%,不变,--,000929
2017-09-30,杨迂,个人,A股,7900000,0.82%,2373700,42.95%,000930
2017-09-30,梁常清,个人,A股,7100000,0.74%,-924715,-11.52%,000930
2017-09-30,梁宝欣,个人,A股,5500000,0.57%,-7484,-0.14%,000930
2017-09-30,潘深田,个人,A股,5294400,0.55%,1373700,35.04%,000930
2017-09-30,葛品利,个人,A股,2884400,0.30%,新进,--,000930
2017-09-30,周雪琴,个人,A股,3671573,0.55%,1040500,39.55%,000931
2017-09-30,齐干平,个人,A股,2868000,0.43%,-440000,-13.30%,000931
2017-09-30,林飞燕,个人,A股,2552111,0.38%,不变,--,000931
2017-09-30,张仕友,个人,A股,2089300,0.31%,新进,--,000931
2017-09-30,毛幼聪,个人,A股,36718140,1.22%,新进,--,000932
2017-09-30,魏巍,个人,A股,35747292,1.19%,新进,--,000932
2017-09-30,李东璘,个人,A股,30072286,1.00%,新进,--,000932
2017-09-30,魏娟意,个人,A股,20392056,0.68%,新进,--,000932
2017-09-30,李素清,个人,A股,1892165,0.30%,不变,--,000935
2017-09-30,池晓东,个人,A股,1298879,0.21%,不变,--,000935
2017-09-30,刘琼,个人,A股,1095102,0.17%,新进,--,000935
2017-09-30,陶庆华,个人,A股,821920,0.13%,新进,--,000935
2017-09-30,赵伟平,个人,A股,550506,0.09%,新进,--,000935
2017-09-30,赵安平,个人,A股,512500,0.08%,新进,--,000935
2017-09-30,王奇峰,个人,A股,2668150,0.36%,不变,--,000936
2017-09-30,宋建新,个人,A股,1700500,0.23%,新进,--,000936
2017-09-30,盛月华,个人,A股,1650200,0.22%,-69800,-4.06%,000936
2017-09-30,王筱玲,个人,A股,1400000,0.19%,-1025500,-42.28%,000936
2017-09-30,李庆涛,个人,A股,11248903,0.39%,不变,--,000937
2017-09-30,苏其云,个人,A股,1255500,0.61%,205405,19.56%,000938
2017-09-30,张财嘉,个人,A股,1001059,0.49%,新进,--,000938
2017-09-30,李伟东,个人,A股,830000,0.40%,新进,--,000938
2017-09-30,徐如媛,个人,A股,46667724,2.20%,不变,--,000939
2017-09-30,刘玉芳,个人,A股,23952696,1.13%,-1800060,-6.99%,000939
2017-09-30,余薇,个人,A股,1716015,0.70%,新进,--,000948
2017-09-30,杨静,个人,A股,1354000,0.55%,新进,--,000948
2017-09-30,钱国华,个人,A股,1000000,0.41%,不变,--,000948
2017-09-30,黄彪,个人,A股,948861,0.38%,新进,--,000948
2017-09-30,孙焕平,个人,A股,935302,0.38%,14200,1.54%,000948
2017-09-30,蔡祖芬,个人,A股,865000,0.35%,不变,--,000948
2017-09-30,夏一定,个人,A股,3634395,0.35%,新进,--,000949
2017-09-30,徐翊峰,个人,A股,3400000,0.33%,新进,--,000949
2017-09-30,钟为民,个人,A股,3133200,0.31%,新进,--,000949
2017-09-30,徐锦章,个人,A股,3611379,0.60%,不变,--,000950
2017-09-30,刘东旭,个人,A股,2903350,0.48%,不变,--,000950
2017-09-30,游晓方,个人,A股,2426100,0.41%,不变,--,000950
2017-09-30,牟美蔼,个人,A股,1657897,0.28%,不变,--,000950
2017-09-30,张世忠,个人,A股,1595500,0.27%,不变,--,000950
2017-09-30,林泗杉,个人,A股,3311501,1.32%,不变,--,000952
2017-09-30,张国明,个人,A股,2691586,1.07%,不变,--,000952
2017-09-30,胡永添,个人,A股,2090000,0.83%,新进,--,000952
2017-09-30,陈杰,个人,A股,1257040,0.50%,92900,7.98%,000952
2017-09-30,潘卉,个人,A股,1231600,0.49%,不变,--,000952
2017-09-30,张月香,个人,A股,1080000,0.43%,新进,--,000952
2017-09-30,陈超,个人,A股,1071300,0.43%,新进,--,000952
2017-09-30,张利群,个人,A股,1960300,0.67%,-820000,-29.49%,000953
2017-09-30,王春明,个人,A股,1847491,0.63%,-42100,-2.23%,000953
2017-09-30,唐伟,个人,A股,1424800,0.48%,新进,--,000953
2017-09-30,章瑗,个人,A股,960400,0.33%,不变,--,000953
2017-09-30,邹军,个人,A股,841000,0.29%,不变,--,000953
2017-09-30,瞿元庆,个人,A股,817800,0.28%,新进,--,000953
2017-09-30,夏重阳,个人,A股,9620000,1.79%,-7000000,-42.12%,000955
2017-09-30,张智刚,个人,A股,6644600,1.23%,新进,--,000955
2017-09-30,张旭,个人,A股,4000000,0.74%,不变,--,000955
2017-09-30,金佳琪,个人,A股,3438900,0.64%,新进,--,000955
2017-09-30,朱劭冬,个人,A股,3391725,0.63%,新进,--,000955
2017-09-30,李文,个人,A股,6218400,1.30%,500000,8.74%,000957
2017-09-30,林柳峰,个人,A股,4262200,0.89%,新进,--,000957
2017-09-30,林曙阳,个人,A股,3226200,0.68%,新进,--,000957
2017-09-30,李智勇,个人,A股,3003000,0.63%,29600,1.00%,000957
2017-09-30,王军克,个人,A股,2040200,0.43%,新进,--,000957
2017-09-30,方岩,个人,A股,2797000,0.42%,846600,43.41%,000958
2017-09-30,裘登尧,个人,A股,2200000,0.33%,不变,--,000958
2017-09-30,钟以隆,个人,A股,1890000,0.28%,新进,--,000958
2017-09-30,林倩羽,个人,A股,1800000,0.27%,不变,--,000958
2017-09-30,张心东,个人,A股,1791900,0.27%,86700,5.08%,000958
2017-09-30,季晓红,个人,A股,1696000,0.25%,新进,--,000958
2017-09-30,徐智勇,个人,A股,6836300,0.57%,新进,--,000960
2017-09-30,初曦,个人,A股,3450000,0.29%,新进,--,000960
2017-09-30,陈金祥,个人,A股,3131546,0.26%,新进,--,000960
2017-09-30,章高通,个人,A股,2123750,0.48%,123150,6.16%,000962
2017-09-30,葛凯,个人,A股,2070976,0.47%,-127200,-5.79%,000962
2017-09-30,李珠凤,个人,A股,1623600,0.37%,不变,--,000962
2017-09-30,王武海,个人,A股,1623225,0.37%,不变,--,000962
2017-09-30,欧海鹰,个人,A股,1411680,0.32%,不变,--,000962
2017-09-30,黄敏,个人,A股,1253550,0.28%,新进,--,000962
2017-09-30,张丽珍,个人,A股,970000,0.22%,新进,--,000962
2017-09-30,安健,个人,A股,968140,0.22%,新进,--,000962
2017-09-30,赵阳民,个人,A股,5796000,0.57%,282000,5.11%,000965
2017-09-30,庄振鸿,个人,A股,4000000,0.40%,新进,--,000965
2017-09-30,刘定舫,个人,A股,3404292,0.34%,-50784,-1.47%,000965
2017-09-30,李日丁,个人,A股,2770000,0.27%,不变,--,000965
2017-09-30,黄卫国,个人,A股,2629400,0.26%,新进,--,000965
2017-09-30,王梓煜,个人,A股,3968300,0.36%,1148300,40.72%,000966
2017-09-30,黄锐泉,个人,A股,3040000,0.27%,不变,--,000966
2017-09-30,陆玉芝,个人,A股,2746800,0.25%,66000,2.46%,000966
2017-09-30,杭兰芳,个人,A股,2728161,0.25%,新进,--,000966
2017-09-30,吕泓静,个人,A股,2628354,0.24%,不变,--,000966
2017-09-30,周稷松,个人,A股,18338446,2.46%,不变,--,000967
2017-09-30,曹国路,个人,A股,13019797,1.75%,新进,--,000967
2017-09-30,沈洁,个人,A股,12000000,1.61%,新进,--,000967
2017-09-30,赵凯,个人,A股,5000000,1.93%,不变,--,000968
2017-09-30,姜伟,个人,A股,4281943,0.48%,-116000,-2.64%,000969
2017-09-30,李德海,个人,A股,3950000,0.44%,新进,--,000969
2017-09-30,丁海亮,个人,A股,3629000,0.41%,新进,--,000969
2017-09-30,王宏友,个人,A股,3465600,0.39%,新进,--,000969
2017-09-30,王泉平,个人,A股,2205639,0.90%,不变,--,000971
2017-09-30,汤毅,个人,A股,1550800,0.64%,不变,--,000971
2017-09-30,袁均富,个人,A股,3668000,0.38%,不变,--,000973
2017-09-30,陈绍良,个人,A股,2884152,0.30%,新进,--,000973
2017-09-30,张东伟,个人,A股,2670200,0.28%,新进,--,000973
2017-09-30,李洪茂,个人,A股,1802400,0.19%,不变,--,000973
2017-09-30,王涛,个人,A股,1769500,0.18%,新进,--,000973
2017-09-30,吕宏卫,个人,A股,1710000,0.18%,新进,--,000973
2017-09-30,卓辽志,个人,A股,1550000,0.16%,不变,--,000973
2017-09-30,程少良,个人,A股,60629974,6.90%,不变,--,000975
2017-09-30,王水,个人,A股,49504533,5.63%,不变,--,000975
2017-09-30,侯仁峰,个人,A股,47380769,5.39%,-1700000,-3.46%,000975
2017-09-30,孙田志,个人,A股,15884729,1.81%,-183571,-1.14%,000975
2017-09-30,沈国军,个人,A股,13675318,1.56%,不变,--,000975
2017-09-30,徐学任,个人,A股,12410900,1.41%,-220100,-1.74%,000975
2017-09-30,丁海军,个人,A股,11803000,1.34%,-8000,-0.07%,000975
2017-09-30,张寿清,个人,A股,8100000,1.38%,2000000,32.79%,000976
2017-09-30,万忠波,个人,A股,15002848,1.17%,新进,--,000977
2017-09-30,张媛,个人,A股,5154960,0.40%,新进,--,000977
2017-09-30,舒峥,个人,A股,3041976,0.84%,42000,1.40%,000978
2017-09-30,张小军,个人,A股,57033529,0.68%,16295294,40.00%,000979
2017-09-30,陆珏,个人,A股,18180579,0.22%,新进,--,000979
2017-09-30,余后荣,个人,A股,17756060,0.21%,新进,--,000979
2017-09-30,刘方,个人,A股,4024300,0.76%,116800,2.99%,000980
2017-09-30,曹文桥,个人,A股,2653200,0.50%,新进,--,000980
2017-09-30,熊基凯,个人,A股,782850209,30.41%,32850209,4.38%,000981
2017-09-30,鲁国华,个人,A股,117000000,4.54%,不变,--,000981
2017-09-30,孔永林,个人,A股,114000000,4.43%,不变,--,000981
2017-09-30,蒋伟平,个人,A股,103200402,4.01%,1591502,1.57%,000981
2017-09-30,周株军,个人,A股,84000000,3.26%,不变,--,000981
2017-09-30,姚佳洪,个人,A股,54000000,2.10%,不变,--,000981
2017-09-30,马心薇,个人,A股,4313145,0.17%,新进,--,000981
2017-09-30,赵明海,个人,A股,9818400,0.54%,1118400,12.86%,000982
2017-09-30,吴伟强,个人,A股,8217444,0.46%,新进,--,000982
2017-09-30,吴彬,个人,A股,6223828,0.34%,新进,--,000982
2017-09-30,向上,个人,A股,6000000,0.33%,不变,--,000982
2017-09-30,倪珠玉,个人,A股,5792255,0.32%,新进,--,000982
2017-09-30,郁冬,个人,A股,5714502,0.32%,新进,--,000982
2017-09-30,许元科,个人,A股,538760,0.42%,新进,--,000985
2017-09-30,向美珍,个人,A股,456054,0.35%,3900,0.86%,000985
2017-09-30,孙定保,个人,A股,451483,0.35%,新进,--,000985
2017-09-30,林奇,个人,A股,440000,0.34%,不变,--,000985
2017-09-30,熊银河,个人,A股,5550000,1.03%,1550000,38.75%,000987
2017-09-30,祝军凯,个人,A股,3150027,0.59%,新进,--,000987
2017-09-30,孙良福,个人,A股,2140245,0.40%,699166,48.52%,000987
2017-09-30,罗予频,个人,A股,1700000,0.32%,不变,--,000987
2017-09-30,招伟雄,个人,A股,1450000,0.27%,不变,--,000987
2017-09-30,陈业强,个人,A股,4635105,0.52%,新进,--,000988
2017-09-30,黄培良,个人,A股,3395100,0.38%,255100,8.12%,000988
2017-09-30,涂圣华,个人,A股,2959658,0.33%,新进,--,000988
2017-09-30,李振国,个人,A股,91995714,22.21%,不变,--,000989
2017-09-30,陈树雄,个人,A股,8329064,2.01%,不变,--,000989
2017-09-30,陈妙宣,个人,A股,8193690,1.98%,不变,--,000989
2017-09-30,田泽成,个人,A股,4935174,1.19%,新进,--,000989
2017-09-30,吴强,个人,A股,1700784,0.44%,不变,--,000990
2017-09-30,樊春华,个人,A股,1520000,0.39%,新进,--,000990
2017-09-30,刘士云,个人,A股,1445000,0.37%,新进,--,000990
2017-09-30,陈其城,个人,A股,1807900,0.48%,新进,--,000993
2017-09-30,孙继珍,个人,A股,800000,0.21%,170300,27.04%,000993
2017-09-30,胡朝华,个人,A股,800000,0.21%,不变,--,000993
2017-09-30,周文,个人,A股,799649,0.21%,不变,--,000993
2017-09-30,肖光昱,个人,A股,700000,0.19%,新进,--,000993
2017-09-30,佘小红,个人,A股,684100,0.18%,不变,--,000993
2017-09-30,王德丰,个人,A股,680430,0.18%,不变,--,000993
2017-09-30,黎婉琼,个人,A股,618900,0.17%,新进,--,000993
2017-09-30,邱晓勤,个人,A股,7969552,4.49%,不变,--,000995
2017-09-30,徐莉蓉,个人,A股,2607900,1.47%,不变,--,000995
2017-09-30,王自兰,个人,A股,2235000,1.26%,不变,--,000995
2017-09-30,徐云富,个人,A股,1608651,0.91%,不变,--,000995
2017-09-30,马文超,个人,A股,1448301,0.82%,不变,--,000995
2017-09-30,万晓丽,个人,A股,1442100,0.81%,不变,--,000995
2017-09-30,易小强,个人,A股,3144079,0.91%,1649485,110.36%,000996
2017-09-30,蔡美瑜,个人,A股,2100000,0.61%,新进,--,000996
2017-09-30,周俊虎,个人,A股,1667367,0.48%,610789,57.81%,000996
2017-09-30,郝俊,个人,A股,1329000,0.39%,443000,50.00%,000996
2017-09-30,姚永海,个人,A股,1257092,0.36%,新进,--,000996
2017-09-30,谢雄清,个人,A股,1225821,0.36%,408607,50.00%,000996
2017-09-30,张宗敏,个人,A股,1207850,0.35%,375950,45.19%,000996
2017-09-30,汤永霞,个人,A股,1133961,0.33%,新进,--,000996
2017-09-30,范立新,个人,A股,1129350,0.33%,376250,49.96%,000996
2017-09-30,冯继东,个人,A股,3608905,0.39%,不变,--,000997
2017-09-30,李粤桓,个人,A股,3583704,0.39%,新进,--,000997
2017-09-30,袁丰年,个人,A股,26340691,2.76%,-3114943,-10.58%,000998
2017-09-30,郭建秀,个人,A股,16220000,1.70%,-1700000,-9.49%,000998
2017-09-30,戴飞,个人,A股,13657301,1.43%,-490543,-3.47%,000998
2017-09-30,袁隆平,个人,A股,13371430,1.40%,不变,--,000998
2017-09-30,李俊杰,个人,A股,5495493,0.62%,不变,--,001696
2017-09-30,蓝歆旻,个人,A股,3909880,0.44%,210100,5.68%,001696
2017-09-30,左宗申,个人,A股,3105000,0.35%,不变,--,001696
2017-09-30,陈健,个人,A股,2761774,0.31%,130500,4.96%,001696
2017-09-30,曹碧波,个人,A股,2509560,0.38%,新进,--,001896
2017-09-30,李丽,个人,A股,2438100,0.37%,新进,--,001896
2017-09-30,陈丽娟,个人,A股,2161300,0.33%,新进,--,001896
2017-09-30,刘予丰,个人,A股,1500000,0.23%,-83900,-5.30%,001896
2017-09-30,陆锦鹿,个人,A股,1386000,0.21%,新进,--,001896
2017-09-30,杜歆晔,个人,A股,3880800,1.59%,不变,--,200011
2017-09-30,周群,个人,A股,3115450,1.28%,不变,--,200011
2017-09-30,杜允丰,个人,A股,2323000,0.95%,不变,--,200011
2017-09-30,杨耀初,个人,B股,1410620,0.58%,90000,6.81%,200011
2017-09-30,麦富容,个人,B股,1330500,0.55%,-54300,-3.92%,200011
2017-09-30,高远雄,个人,A股,1140401,0.47%,新进,--,200011
2017-09-30,陈丽英,个人,B股,1102051,0.45%,不变,--,200011
2017-09-30,李京,个人,B股,962440,0.40%,不变,--,200011
2017-09-30,曹益凡,个人,B股,848000,0.35%,新进,--,200011
2017-09-30,王磊,个人,A股,37406339,1.55%,新进,--,200016
2017-09-30,NAM NGAI,个人,B股,22240040,0.92%,-295200,-1.31%,200016
2017-09-30,李惠丽,个人,B股,3891124,0.71%,不变,--,200017
2017-09-30,黄怀岸,个人,A股,10115000,0.99%,不变,--,200018
2017-09-30,蔡宇,个人,A股,9000000,0.88%,新进,--,200018
2017-09-30,孙慧明,个人,B股,3403262,0.73%,不变,--,200019
2017-09-30,胡祥主,个人,A股,1910000,0.41%,150000,8.52%,200019
2017-09-30,张岳,个人,A股,1392077,0.30%,1270,0.09%,200019
2017-09-30,李倩,个人,A股,1282678,0.27%,-149700,-10.45%,200019
2017-09-30,许砚慧,个人,A股,1072500,0.23%,不变,--,200019
2017-09-30,叶秀霞,个人,A股,1000230,0.21%,不变,--,200019
2017-09-30,徐东冬,个人,A股,1690307,0.60%,不变,--,200020
2017-09-30,周红兵,个人,A股,1221800,0.43%,不变,--,200020
2017-09-30,钟佳潮,个人,A股,1096300,0.39%,27800,2.60%,200020
2017-09-30,LI SHERYN ZHAN MING,个人,B股,1072802,0.38%,新进,--,200020
2017-09-30,李光鑫,个人,B股,761161,0.35%,不变,--,200025
2017-09-30,翁政文,个人,B股,574528,0.26%,-5000,-0.86%,200025
2017-09-30,何杏,个人,B股,300100,0.14%,不变,--,200025
2017-09-30,黄楚云,个人,B股,266500,0.12%,不变,--,200025
2017-09-30,曾惠明,个人,B股,250000,0.11%,-20000,-7.41%,200025
2017-09-30,徐美女,个人,A股,237400,0.11%,新进,--,200025
2017-09-30,林凤芳,个人,B股,216933,0.10%,不变,--,200025
2017-09-30,杨祖贵,个人,A股,7254069,1.65%,1352400,22.92%,200026
2017-09-30,卢志高,个人,A股,3246949,0.32%,不变,--,200029
2017-09-30,谭石庆,个人,A股,1286701,0.13%,不变,--,200029
2017-09-30,杨水莲,个人,A股,1273700,0.13%,不变,--,200029
2017-09-30,杨剑雄,个人,B股,1255750,0.12%,不变,--,200029
2017-09-30,彭伟,个人,A股,1129082,0.11%,不变,--,200029
2017-09-30,吴浩源,个人,B股,1109300,0.11%,不变,--,200029
2017-09-30,叶凡,个人,A股,6682188,0.52%,不变,--,200030
2017-09-30,曾颖,个人,B股,6331656,1.05%,282586,4.67%,200037
2017-09-30,张和平,个人,"A股,B股",5025900,0.83%,不变,--,200037
2017-09-30,李宝琴,个人,"A股,B股",3994100,0.66%,435586,12.24%,200037
2017-09-30,孙慧明,个人,B股,2396826,0.47%,-63400,-2.58%,200045
2017-09-30,刘东霞,个人,A股,1523900,0.30%,新进,--,200045
2017-09-30,苏运泽,个人,A股,1401500,0.28%,441500,45.99%,200045
2017-09-30,朱烨,个人,A股,1331945,0.26%,不变,--,200045
2017-09-30,王民仓,个人,A股,1280236,0.25%,-97000,-7.04%,200045
2017-09-30,洪帆,个人,A股,972400,0.19%,19800,2.08%,200045
2017-09-30,苏志芬,个人,A股,965200,0.19%,新进,--,200045
2017-09-30,黄映彬,个人,B股,2352398,2.12%,15500,0.66%,200053
2017-09-30,俞志翔,个人,B股,1422339,1.28%,不变,--,200053
2017-09-30,李玮,个人,B股,650400,0.58%,27400,4.40%,200053
2017-09-30,沙淑丽,个人,B股,568711,0.51%,不变,--,200053
2017-09-30,刘丹,个人,B股,1032201,3.44%,不变,--,200054
2017-09-30,俞凌峰,个人,B股,623621,2.08%,不变,--,200054
2017-09-30,陈新强,个人,B股,612400,2.04%,不变,--,200054
2017-09-30,许元晖,个人,B股,610789,2.04%,不变,--,200054
2017-09-30,张美兰,个人,B股,513560,1.71%,不变,--,200054
2017-09-30,陈后平,个人,B股,422961,1.41%,6800,1.63%,200054
2017-09-30,刘国胜,个人,B股,313000,1.04%,不变,--,200054
2017-09-30,林帆,个人,B股,254000,0.85%,新进,--,200054
2017-09-30,周世坚,个人,A股,10000000,0.85%,-10000000,-50.00%,200055
2017-09-30,锺志强,个人,B股,21576850,4.08%,新进,--,200056
2017-09-30,刘国成,个人,B股,6891302,0.88%,61800,0.90%,200058
2017-09-30,张椒,个人,A股,4046989,0.52%,不变,--,200058
2017-09-30,刘国洪,个人,B股,3045839,0.39%,-129119,-4.07%,200058
2017-09-30,韩文霁,个人,A股,2980000,0.38%,新进,--,200058
2017-09-30,龚茜华,个人,B股,2940000,0.37%,不变,--,200058
2017-09-30,刘量,个人,A股,2206600,0.28%,新进,--,200058
2017-09-30,侯春虎,个人,B股,1693945,1.21%,42600,2.58%,200152
2017-09-30,陈经建,个人,B股,1554400,1.11%,35000,2.30%,200152
2017-09-30,姚明,个人,B股,1354403,0.97%,106400,8.53%,200152
2017-09-30,王文胜,个人,B股,7258007,1.57%,不变,--,200160
2017-09-30,周海虹,个人,B股,6708495,1.45%,不变,--,200160
2017-09-30,李天云,个人,B股,5158000,1.12%,不变,--,200160
2017-09-30,赵子英,个人,B股,3286616,0.71%,不变,--,200160
2017-09-30,彭伟,个人,B股,2978525,0.65%,不变,--,200160
2017-09-30,陈燕,个人,B股,2017000,0.44%,-2006256,-49.87%,200160
2017-09-30,李思泉,个人,B股,1540337,0.33%,新进,--,200160
2017-09-30,粟有和,个人,B股,7234469,4.68%,不变,--,200168
2017-09-30,樊炯阳,个人,B股,1451300,0.94%,不变,--,200168
2017-09-30,NGAI KWOK PAN 魏国斌,个人,B股,1145816,0.74%,不变,--,200168
2017-09-30,陈剑星,个人,B股,930144,0.60%,197800,27.01%,200168
2017-09-30,王晓燕,个人,B股,814100,0.53%,新进,--,200168
2017-09-30,陈锦明,个人,B股,765500,0.50%,不变,--,200168
2017-09-30,冯梧初,个人,"A股,B股",21438522,2.62%,-286275,-1.32%,200429
2017-09-30,张怀安,个人,B股,2807000,2.81%,不变,--,200468
2017-09-30,郑恩月,个人,B股,2405739,2.41%,不变,--,200468
2017-09-30,孙慧明,个人,B股,2007110,2.01%,不变,--,200468
2017-09-30,顾金花,个人,B股,1783771,1.78%,不变,--,200468
2017-09-30,LI SHERYN ZHAN MING,个人,B股,1145000,1.15%,不变,--,200468
2017-09-30,金云花,个人,B股,950162,0.95%,不变,--,200468
2017-09-30,金幸,个人,B股,7630100,0.40%,220000,2.97%,200488
2017-09-30,LI SHERYN ZHAN MING,个人,B股,21282800,5.00%,373400,1.79%,200505
2017-09-30,梅建英,个人,A股,2583803,0.61%,不变,--,200505
2017-09-30,姚丽媛,个人,B股,1950000,0.46%,不变,--,200505
2017-09-30,张晓霞,个人,B股,1949250,0.46%,不变,--,200505
2017-09-30,王小星,个人,A股,1836500,0.43%,不变,--,200505
2017-09-30,陈藕琴,个人,A股,1652679,0.39%,新进,--,200505
2017-09-30,王道,个人,A股,1633300,0.38%,新进,--,200505
2017-09-30,钟懿,个人,A股,1604283,0.38%,新进,--,200505
2017-09-30,许震,个人,A股,1595000,0.37%,-830500,-34.24%,200505
2017-09-30,陈永泉,个人,B股,1897343,1.02%,500,0.03%,200512
2017-09-30,陈永清,个人,B股,1488949,0.80%,30600,2.10%,200512
2017-09-30,陈丽娟,个人,B股,1330434,0.72%,22417,1.71%,200512
2017-09-30,CAO SHENGCHUN,个人,B股,13829083,1.83%,5900,0.04%,200521
2017-09-30,龙芹芳,个人,B股,3353496,0.44%,759,0.02%,200521
2017-09-30,林镇铭,个人,B股,6190000,0.75%,-40000,-0.64%,200530
2017-09-30,孙慧明,个人,B股,5634499,0.68%,新进,--,200530
2017-09-30,李卓,个人,A股,31009743,0.93%,9058358,41.27%,200539
2017-09-30,郑建祥,个人,B股,18453452,0.55%,新进,--,200539
2017-09-30,彭伟燕,个人,A股,8546042,0.68%,新进,--,200541
2017-09-30,谢庆军,个人,B股,4490033,0.76%,31800,0.71%,200553
2017-09-30,石云,个人,A股,2830000,0.48%,-537606,-15.96%,200553
2017-09-30,周奇平,个人,A股,2093045,0.35%,166800,8.66%,200553
2017-09-30,雷平安,个人,A股,4093998,0.73%,新进,--,200570
2017-09-30,彭军,个人,A股,1800000,0.32%,新进,--,200570
2017-09-30,黄国良,个人,B股,1528891,0.27%,不变,--,200570
2017-09-30,梁年有,个人,A股,1362652,0.24%,新进,--,200570
2017-09-30,黎穗南,个人,B股,1338700,0.24%,新进,--,200570
2017-09-30,潘国平,个人,B股,30879791,8.73%,不变,--,200613
2017-09-30,胡建国,个人,A股,6227640,1.76%,不变,--,200613
2017-09-30,张峰秀,个人,A股,3901372,1.10%,不变,--,200613
2017-09-30,姜顺头,个人,A股,3668800,1.04%,新进,--,200613
2017-09-30,黄俊跃,个人,B股,4768300,3.01%,88300,1.89%,200706
2017-09-30,胡晓峰,个人,B股,1879277,1.18%,不变,--,200706
2017-09-30,金云花,个人,B股,1311256,0.83%,不变,--,200706
2017-09-30,周杰,个人,B股,1002100,0.63%,317900,46.46%,200706
2017-09-30,"MAN,KWAI WING 文贵荣",个人,B股,713101,0.45%,不变,--,200706
2017-09-30,马元城,个人,B股,596966,0.38%,不变,--,200706
2017-09-30,周俊麟,个人,B股,547801,0.35%,2201,0.40%,200706
2017-09-30,马腾云,个人,A股,13298900,0.42%,新进,--,200761
2017-09-30,陈进鸿,个人,A股,5077500,0.16%,新进,--,200761
2017-09-30,俞晓帆,个人,B股,4409896,0.14%,新进,--,200761
2017-09-30,刘师红,个人,B股,3859240,0.12%,新进,--,200761
2017-09-30,夏祖林,个人,B股,2147400,0.78%,47400,2.26%,200771
2017-09-30,吴浩源,个人,B股,2561991,1.49%,不变,--,200986
2017-09-30,缪军,个人,B股,1213000,0.71%,93800,8.38%,200986
2017-09-30,吴奋强,个人,B股,1167300,0.68%,-66601,-5.40%,200986
2017-09-30,马泽琪,个人,B股,959762,0.56%,新进,--,200986
2017-09-30,朱世杰,个人,B股,875072,0.51%,新进,--,200986
2017-09-30,"PANG,KWOK SHI彭国仕",个人,B股,780704,0.45%,新进,--,200986
2017-09-30,陈天明,个人,B股,5760427,4.17%,不变,--,200992
2017-09-30,王东升,个人,B股,1209502,0.88%,不变,--,200992
2017-09-30,秦军,个人,B股,1083220,0.78%,不变,--,200992
2017-09-30,伊影,个人,B股,1078200,0.78%,不变,--,200992
2017-09-30,黄嘉仪,个人,B股,1048687,0.76%,不变,--,200992
2017-09-30,林名禹,个人,B股,964001,0.70%,4500,0.47%,200992
2017-09-30,赵锦清,个人,A股,26958630,1.30%,新进,--,002002
2017-09-30,林采耿,个人,A股,16620529,0.80%,-961200,-5.47%,002002
2017-09-30,林任帆,个人,A股,8065973,0.39%,不变,--,002002
2017-09-30,郑银翡,个人,A股,7595371,0.37%,新进,--,002002
2017-09-30,郑技天,个人,A股,15832142,3.33%,不变,--,002003
2017-09-30,章卡鹏,个人,A股,8794015,1.85%,不变,--,002003
2017-09-30,张三云,个人,A股,6498882,1.37%,不变,--,002003
2017-09-30,谢瑾琨,个人,A股,4441724,0.93%,不变,--,002003
2017-09-30,李生学,个人,A股,78578039,4.71%,500,0.00%,002004
2017-09-30,张一卓,个人,A股,39020000,2.34%,不变,--,002004
2017-09-30,张松山,个人,A股,29273896,1.75%,不变,--,002004
2017-09-30,杨维虎,个人,A股,18840000,1.13%,不变,--,002004
2017-09-30,潘明欣,个人,A股,16103100,0.96%,-796900,-4.72%,002004
2017-09-30,杨舰,个人,A股,15326210,0.92%,不变,--,002004
2017-09-30,王晟,个人,A股,34406400,2.95%,不变,--,002005
2017-09-30,杨君,个人,A股,9345200,0.80%,不变,--,002005
2017-09-30,周麦中,个人,A股,6580500,0.56%,不变,--,002005
2017-09-30,曹子荣,个人,A股,6046800,0.52%,-2000,-0.03%,002005
2017-09-30,孙建江,个人,A股,24508170,5.38%,不变,--,002006
2017-09-30,邵志明,个人,A股,6307400,1.39%,不变,--,002006
2017-09-30,张萍,个人,A股,3870000,0.85%,-317250,-7.58%,002006
2017-09-30,孟文娟,个人,A股,3705653,0.81%,不变,--,002006
2017-09-30,陈广伟,个人,A股,3434800,0.75%,不变,--,002006
2017-09-30,王建云,个人,A股,3392600,0.75%,不变,--,002006
2017-09-30,郑清清,个人,A股,3264900,0.72%,不变,--,002006
2017-09-30,姜东林,个人,A股,2500000,0.55%,不变,--,002006
2017-09-30,安康,个人,A股,41471338,5.16%,不变,--,002007
2017-09-30,高云峰,个人,A股,24079884,2.43%,不变,--,002008
2017-09-30,黄伟兴,个人,A股,15597329,5.75%,不变,--,002009
2017-09-30,徐冠巨,个人,A股,15891282,3.85%,不变,--,002010
2017-09-30,徐观宝,个人,A股,9157689,2.22%,不变,--,002010
2017-09-30,魏杰,个人,A股,6519966,0.78%,不变,--,002011
2017-09-30,饶丹,个人,A股,3451700,0.41%,196700,6.04%,002011
2017-09-30,谢淑萍,个人,A股,3445200,0.41%,新进,--,002011
2017-09-30,闫彬,个人,A股,3314776,0.39%,-2256753,-40.51%,002011
2017-09-30,应圣俊,个人,A股,5346039,1.14%,不变,--,002012
2017-09-30,陈云林,个人,A股,3649391,0.78%,不变,--,002012
2017-09-30,袁思孝,个人,A股,3362335,0.72%,不变,--,002012
2017-09-30,孟艳霞,个人,A股,3359998,0.72%,不变,--,002012
2017-09-30,王建祥,个人,A股,3431530,1.49%,-100000,-2.83%,002014
2017-09-30,陈乙超,个人,A股,12000076,2.99%,不变,--,002015
2017-09-30,叶卫春,个人,A股,8530000,2.13%,不变,--,002015
2017-09-30,奚振辉,个人,A股,7289692,1.82%,不变,--,002015
2017-09-30,高峻,个人,A股,7000061,1.75%,不变,--,002015
2017-09-30,王建裕,个人,A股,6537523,1.63%,不变,--,002015
2017-09-30,陈建忠,个人,A股,6334370,1.58%,不变,--,002015
2017-09-30,梁社增,个人,A股,433440000,67.09%,不变,--,002016
2017-09-30,胡强明,个人,A股,2170112,0.34%,不变,--,002016
2017-09-30,雷瑞添,个人,A股,1822600,0.28%,新进,--,002016
2017-09-30,朱晓霞,个人,A股,1446300,0.22%,新进,--,002016
2017-09-30,蒋爱东,个人,A股,1060000,0.31%,不变,--,002017
2017-09-30,郑曙宏,个人,A股,800000,0.23%,不变,--,002017
2017-09-30,鲍晓薇,个人,A股,740000,0.22%,不变,--,002017
2017-09-30,齐旭东,个人,A股,721100,0.21%,30000,4.34%,002017
2017-09-30,蒋日荣,个人,A股,688200,0.20%,新进,--,002017
2017-09-30,田晓虹,个人,A股,679839,0.20%,不变,--,002017
2017-09-30,庆天,个人,A股,13152760,0.58%,不变,--,002018
2017-09-30,黄维,个人,A股,6308017,0.28%,新进,--,002018
2017-09-30,章小龄,个人,A股,5098380,0.22%,768300,17.74%,002018
2017-09-30,毛柳谊,个人,A股,5009250,0.22%,新进,--,002018
2017-09-30,钟光堂,个人,A股,4510608,0.20%,-183013,-3.90%,002018
2017-09-30,龚志娟,个人,A股,4496180,0.20%,-1539800,-25.51%,002018
2017-09-30,黄士兴,个人,A股,4420000,0.19%,397570,9.88%,002018
2017-09-30,程先锋,个人,A股,91924900,15.90%,新进,--,002019
2017-09-30,过鑫富,个人,A股,29660000,5.13%,-6992890,-19.08%,002019
2017-09-30,林关羽,个人,A股,10359020,1.79%,-3370100,-24.55%,002019
2017-09-30,黄小敏,个人,A股,7855906,1.36%,新进,--,002019
2017-09-30,姜维平,个人,A股,5116600,0.88%,-2000000,-28.10%,002019
2017-09-30,张艾忠,个人,A股,4298593,0.74%,新进,--,002019
2017-09-30,方铭,个人,A股,3634000,0.63%,新进,--,002019
2017-09-30,吕岳英,个人,A股,32597488,6.70%,不变,--,002020
2017-09-30,吕钢,个人,A股,18818880,3.87%,不变,--,002020
2017-09-30,吕慧娜,个人,A股,10000500,2.06%,500,0.01%,002020
2017-09-30,吕力平,个人,A股,10000000,2.06%,不变,--,002020
2017-09-30,蔡开坚,个人,A股,60840000,8.85%,不变,--,002021
2017-09-30,凌伟,个人,A股,4270000,0.62%,新进,--,002021
2017-09-30,方晓晴,个人,A股,3891928,0.57%,不变,--,002021
2017-09-30,付丽华,个人,A股,3750900,0.55%,不变,--,002021
2017-09-30,阮小平,个人,A股,3290000,0.48%,不变,--,002021
2017-09-30,王远勇,个人,A股,3079791,0.45%,545960,21.55%,002021
2017-09-30,李伟奇,个人,A股,6270000,1.38%,-30000,-0.48%,002022
2017-09-30,刘向阳,个人,A股,5535867,1.21%,100000,1.84%,002022
2017-09-30,李华广,个人,A股,4553397,1.00%,新进,--,002022
2017-09-30,李再春,个人,A股,52000000,7.89%,不变,--,002023
2017-09-30,李飚,个人,A股,32503495,4.93%,不变,--,002023
2017-09-30,陈金凤,个人,A股,184127709,3.69%,不变,--,002024
2017-09-30,金明,个人,A股,62500583,1.25%,新进,--,002024
2017-09-30,蒋勇,个人,A股,49038171,0.98%,不变,--,002024
2017-09-30,林艺玲,个人,A股,34138915,0.68%,6679365,24.32%,002024
2017-09-30,刘国店,个人,A股,10731296,2.96%,不变,--,002026
2017-09-30,黄建中,个人,A股,5769230,1.59%,新进,--,002026
2017-09-30,朱爱华,个人,A股,4677816,1.29%,不变,--,002026
2017-09-30,易贤忠,个人,A股,210150000,3.62%,59891808,39.86%,002027
2017-09-30,易圣德,个人,A股,85455233,1.47%,24315781,39.77%,002027
2017-09-30,关玉婵,个人,A股,61300000,1.06%,16363400,36.41%,002027
2017-09-30,李霞,个人,A股,38010415,6.56%,不变,--,002028
2017-09-30,陈颖翱,个人,A股,37114294,6.40%,130200,0.35%,002028
2017-09-30,董增平,个人,A股,34199456,5.90%,不变,--,002028
2017-09-30,冯美娟,个人,A股,32326919,5.58%,415800,1.30%,002028
2017-09-30,杨小强,个人,A股,25463791,4.39%,不变,--,002028
2017-09-30,陈邦栋,个人,A股,25099511,4.33%,不变,--,002028
2017-09-30,洪泽君,个人,A股,31370000,4.16%,13700000,77.53%,002029
2017-09-30,何蕴韶,个人,A股,4387677,0.63%,不变,--,002030
2017-09-30,程钢,个人,A股,3362296,0.48%,不变,--,002030
2017-09-30,汪洋,个人,A股,3050934,0.44%,新进,--,002030
2017-09-30,周新宇,个人,A股,2432301,0.35%,不变,--,002030
2017-09-30,洪惠平,个人,A股,221704761,11.86%,不变,--,002031
2017-09-30,郑明略,个人,A股,108225078,5.79%,不变,--,002031
2017-09-30,吴潮忠,个人,A股,84107184,4.50%,不变,--,002031
2017-09-30,陈怡平,个人,A股,16705098,0.89%,862000,5.44%,002031
2017-09-30,白晋蓉,个人,A股,4598400,0.25%,不变,--,002031
2017-09-30,陈填盛,个人,A股,4260990,0.23%,不变,--,002031
2017-09-30,张一卓,个人,A股,27475500,5.00%,不变,--,002033
2017-09-30,单建明,个人,A股,8232545,13.28%,不变,--,002034
2017-09-30,周岭松,个人,A股,6977273,11.26%,不变,--,002034
2017-09-30,鲍凤娇,个人,A股,2950000,4.76%,不变,--,002034
2017-09-30,白继红,个人,A股,1048745,1.69%,-83700,-7.39%,002034
2017-09-30,潘叶江,个人,A股,14487040,2.80%,不变,--,002035
2017-09-30,潘权枝,个人,A股,8345544,1.61%,不变,--,002035
2017-09-30,徐明波,个人,A股,38637501,6.82%,不变,--,002038
2017-09-30,吕剑锋,个人,A股,9561100,1.69%,2091100,27.99%,002038
2017-09-30,汪滨,个人,A股,8221300,1.45%,129500,1.60%,002038
2017-09-30,金燕,个人,A股,6494200,1.15%,-126188,-1.91%,002038
2017-09-30,王佩华,个人,A股,4498773,1.47%,不变,--,002039
2017-09-30,谢竹林,个人,A股,4204847,1.38%,不变,--,002039
2017-09-30,林必聪,个人,A股,1092100,0.44%,新进,--,002040
2017-09-30,谭永平,个人,A股,849900,0.35%,新进,--,002040
2017-09-30,黄少文,个人,A股,548200,0.22%,新进,--,002040
2017-09-30,应传斌,个人,A股,500800,0.20%,不变,--,002040
2017-09-30,陈肖军,个人,A股,500551,0.20%,不变,--,002040
2017-09-30,郑郁龄,个人,A股,500000,0.20%,新进,--,002040
2017-09-30,杨鸿君,个人,A股,436800,0.18%,新进,--,002040
2017-09-30,李登海,个人,A股,64512765,7.38%,不变,--,002041
2017-09-30,周嘉欣,个人,A股,5863800,0.70%,新进,--,002042
2017-09-30,文春蓉,个人,A股,4891381,0.58%,新进,--,002042
2017-09-30,吴林娣,个人,A股,3245750,0.78%,新进,--,002045
2017-09-30,熊玲瑶,个人,A股,2944984,0.71%,新进,--,002045
2017-09-30,唐惠伦,个人,A股,2900000,0.70%,新进,--,002045
2017-09-30,魏满凤,个人,A股,5859932,1.72%,-640026,-9.85%,002046
2017-09-30,黄志成,个人,A股,5813400,1.71%,不变,--,002046
2017-09-30,孙慧明,个人,A股,3999999,1.17%,不变,--,002046
2017-09-30,康一强,个人,A股,2213511,0.65%,29311,1.34%,002046
2017-09-30,杜建芸,个人,A股,1870500,0.55%,新进,--,002046
2017-09-30,刘子翔,个人,A股,1560000,0.46%,160000,11.43%,002046
2017-09-30,朱映君,个人,A股,1454945,0.43%,不变,--,002046
2017-09-30,古少明,个人,A股,271642980,21.51%,不变,--,002047
2017-09-30,李素玉,个人,A股,30341646,2.40%,不变,--,002047
2017-09-30,王小可,个人,A股,10890000,0.86%,新进,--,002047
2017-09-30,罗仕卓,个人,A股,9006100,0.71%,不变,--,002047
2017-09-30,庄楚雄,个人,A股,7800000,0.62%,新进,--,002047
2017-09-30,周晓峰,个人,A股,22484200,4.88%,不变,--,002048
2017-09-30,张士云,个人,A股,22639864,3.76%,不变,--,002049
2017-09-30,韩军,个人,A股,14400079,2.39%,新进,--,002049
2017-09-30,赵维健,个人,A股,4742720,0.79%,-1996300,-29.62%,002049
2017-09-30,李海水,个人,A股,10001546,0.64%,新进,--,002050
2017-09-30,凌凤远,个人,A股,3093466,0.50%,16600,0.54%,002052
2017-09-30,李红,个人,A股,2683200,0.43%,新进,--,002052
2017-09-30,莫常春,个人,A股,2412200,0.39%,不变,--,002052
2017-09-30,叶欣,个人,A股,2250000,0.36%,不变,--,002052
2017-09-30,崔红君,个人,A股,1973302,0.32%,100,0.01%,002052
2017-09-30,刘莉,个人,A股,1820000,0.29%,不变,--,002052
2017-09-30,虞伟庆,个人,A股,1817400,0.29%,30900,1.73%,002052
2017-09-30,黄冠雄,个人,A股,22985461,7.30%,不变,--,002054
2017-09-30,何国英,个人,A股,10588362,3.36%,不变,--,002054
2017-09-30,梁志烨,个人,A股,6839700,2.17%,新进,--,002054
2017-09-30,周建新,个人,A股,6637424,2.11%,新进,--,002054
2017-09-30,何秋娣,个人,A股,6117890,1.94%,-272110,-4.26%,002054
2017-09-30,杨桦,个人,A股,21242906,5.27%,不变,--,002055
2017-09-30,郭庆,个人,A股,4000273,0.99%,新进,--,002055
2017-09-30,邱建民,个人,A股,3905504,0.97%,不变,--,002055
2017-09-30,汤文枫,个人,A股,1871688,0.46%,-155000,-7.65%,002055
2017-09-30,张捍华,个人,A股,1600000,0.40%,180700,12.73%,002055
2017-09-30,郑文淦,个人,A股,12514576,0.76%,1281772,11.41%,002056
2017-09-30,夏多友,个人,A股,1315600,0.66%,新进,--,002057
2017-09-30,马方明,个人,A股,1116115,0.56%,116000,11.60%,002057
2017-09-30,龚长波,个人,A股,1072410,0.54%,新进,--,002057
2017-09-30,林学灿,个人,A股,813376,0.41%,不变,--,002057
2017-09-30,马超,个人,A股,642470,0.32%,7000,1.10%,002057
2017-09-30,王树先,个人,A股,633900,0.32%,新进,--,002057
2017-09-30,江玉玲,个人,A股,7027479,4.90%,不变,--,002058
2017-09-30,周辉祥,个人,A股,4111932,2.87%,4000,0.10%,002058
2017-09-30,李怡新,个人,A股,2899636,2.02%,1300,0.04%,002058
2017-09-30,杨清,个人,A股,42909918,6.05%,不变,--,002059
2017-09-30,严志平,个人,A股,6835462,0.96%,不变,--,002059
2017-09-30,张海坚,个人,A股,7762096,0.65%,不变,--,002060
2017-09-30,杨悦明,个人,A股,4472600,0.37%,不变,--,002060
2017-09-30,黄若彤,个人,A股,4000000,0.33%,不变,--,002060
2017-09-30,林丽花,个人,A股,2759390,0.23%,新进,--,002060
2017-09-30,伍红光,个人,A股,2447093,0.20%,新进,--,002060
2017-09-30,童法青,个人,A股,2655895,0.59%,新进,--,002061
2017-09-30,陈君夫,个人,A股,2515956,0.56%,新进,--,002061
2017-09-30,薛梦还,个人,A股,2502500,0.55%,新进,--,002061
2017-09-30,郑宏舫,个人,A股,33021232,3.47%,-9000000,-21.42%,002062
2017-09-30,严帮吉,个人,A股,12141888,1.28%,-157000,-1.28%,002062
2017-09-30,王富强,个人,A股,9000000,0.95%,新进,--,002062
2017-09-30,赵熙逸,个人,A股,8515060,0.90%,不变,--,002062
2017-09-30,林备战,个人,A股,7645000,0.80%,不变,--,002062
2017-09-30,李秀,个人,A股,5805158,0.61%,-60557,-1.03%,002062
2017-09-30,李坚志,个人,A股,5522000,0.58%,不变,--,002062
2017-09-30,蔡振华,个人,A股,4900000,0.52%,不变,--,002062
2017-09-30,陈利浩,个人,A股,18120663,3.42%,801815,4.63%,002063
2017-09-30,陈卓婷,个人,A股,8949817,1.69%,43200,0.49%,002063
2017-09-30,黄建元,个人,A股,6191328,1.17%,372800,6.41%,002063
2017-09-30,尤小平,个人,A股,36718000,2.39%,不变,--,002064
2017-09-30,薛向东,个人,A股,95613348,3.42%,47806674,100.00%,002065
2017-09-30,吴红燕,个人,A股,26200000,0.94%,12250000,87.81%,002065
2017-09-30,柏红,个人,A股,20720000,0.74%,10360000,100.00%,002065
2017-09-30,王玉,个人,A股,1035678,0.45%,新进,--,002066
2017-09-30,彭蔓莉,个人,A股,935000,0.40%,不变,--,002066
2017-09-30,韩红菊,个人,A股,800619,0.35%,-285,-0.04%,002066
2017-09-30,洪卫民,个人,A股,700000,0.30%,不变,--,002066
2017-09-30,蒋聪伟,个人,A股,680000,0.29%,不变,--,002066
2017-09-30,郑韵缜,个人,A股,506900,0.22%,不变,--,002066
2017-09-30,朱在龙,个人,A股,44550000,4.64%,不变,--,002067
2017-09-30,罗伟健,个人,A股,9853082,1.03%,不变,--,002067
2017-09-30,刘小雨,个人,A股,5216405,0.54%,新进,--,002067
2017-09-30,雷扬,个人,A股,4743629,0.49%,新进,--,002067
2017-09-30,甘娜,个人,A股,4456701,0.46%,新进,--,002067
2017-09-30,马戈,个人,A股,3700000,0.39%,700000,23.33%,002067
2017-09-30,谭澍坚,个人,A股,5792103,0.95%,新进,--,002068
2017-09-30,王兆英,个人,A股,3900000,0.64%,新进,--,002068
2017-09-30,丁伟,个人,A股,3217300,0.53%,新进,--,002068
2017-09-30,吴厚刚,个人,A股,5396000,0.79%,不变,--,002069
2017-09-30,陆炳荣,个人,A股,4898891,0.71%,不变,--,002069
2017-09-30,纪彦禹,个人,A股,3678199,0.54%,新进,--,002069
2017-09-30,许金和,个人,A股,63084065,11.13%,不变,--,002070
2017-09-30,张源,个人,A股,9928600,1.75%,不变,--,002070
2017-09-30,曹明,个人,A股,4582740,0.81%,不变,--,002070
2017-09-30,许建成,个人,A股,4163494,0.73%,不变,--,002070
2017-09-30,王敏艳,个人,A股,3174242,0.56%,不变,--,002070
2017-09-30,张立良,个人,A股,3097205,0.55%,不变,--,002070
2017-09-30,林纳新,个人,A股,3091301,0.55%,不变,--,002070
2017-09-30,邱宝裕,个人,A股,3000000,0.53%,不变,--,002070
2017-09-30,王培火,个人,A股,11760130,2.28%,不变,--,002071
2017-09-30,黄国江,个人,A股,3973666,0.77%,-162500,-3.93%,002071
2017-09-30,杨逸沙,个人,A股,2406104,0.47%,不变,--,002071
2017-09-30,张培峰,个人,A股,9143134,5.19%,342500,3.89%,002072
2017-09-30,任飞,个人,A股,6229900,3.54%,3435285,122.93%,002072
2017-09-30,王腾,个人,A股,3093800,1.76%,新进,--,002072
2017-09-30,魏东婷,个人,A股,2552200,1.45%,新进,--,002072
2017-09-30,袁仲雪,个人,A股,36181372,5.76%,不变,--,002073
2017-09-30,孙益源,个人,A股,8020000,1.65%,-4607900,-36.49%,002074
2017-09-30,王建平,个人,A股,4210000,0.87%,新进,--,002074
2017-09-30,李非文,个人,A股,158200000,7.17%,不变,--,002075
2017-09-30,刘振光,个人,A股,154000000,6.98%,不变,--,002075
2017-09-30,李强,个人,A股,140000000,6.34%,不变,--,002075
2017-09-30,朱峥,个人,A股,140000000,6.34%,不变,--,002075
2017-09-30,黄李厚,个人,A股,100353500,4.55%,不变,--,002075
2017-09-30,刘本忠,个人,A股,89172601,4.04%,不变,--,002075
2017-09-30,金洁,个人,A股,88000000,3.99%,不变,--,002075
2017-09-30,王继满,个人,A股,81100000,3.68%,不变,--,002075
2017-09-30,燕卫民,个人,A股,79536000,3.60%,不变,--,002075
2017-09-30,柴国生,个人,A股,56239860,13.37%,-4200000,-6.95%,002076
2017-09-30,王毅,个人,A股,12818468,3.05%,不变,--,002076
2017-09-30,陈建通,个人,A股,12456264,2.96%,不变,--,002076
2017-09-30,王朝晖,个人,A股,6177506,1.47%,不变,--,002076
2017-09-30,黄云龙,个人,A股,6000000,1.43%,不变,--,002076
2017-09-30,冼树忠,个人,A股,5555394,1.32%,不变,--,002076
2017-09-30,陈建顺,个人,A股,3849600,0.91%,不变,--,002076
2017-09-30,王刚,个人,A股,13248646,3.55%,不变,--,002077
2017-09-30,肖孟佳,个人,A股,2897800,0.40%,100000,3.57%,002079
2017-09-30,张青林,个人,A股,1382900,0.19%,新进,--,002079
2017-09-30,王正明,个人,A股,1380000,0.19%,新进,--,002079
2017-09-30,周子龙,个人,A股,1373900,0.19%,-84400,-5.79%,002079
2017-09-30,董有恒,个人,A股,1335323,0.18%,不变,--,002079
2017-09-30,陈云麟,个人,A股,1333143,0.18%,45800,3.56%,002079
2017-09-30,廖俊文,个人,A股,1300000,0.18%,新进,--,002079
2017-09-30,杨锦粤,个人,A股,1263087,0.17%,-1013430,-44.52%,002079
2017-09-30,俞纪文,个人,A股,5020895,2.20%,-200205,-3.83%,002082
2017-09-30,徐引生,个人,A股,3500000,1.53%,不变,--,002082
2017-09-30,沈百明,个人,A股,3013808,1.32%,20000,0.67%,002082
2017-09-30,张灵正,个人,A股,2400000,1.05%,新进,--,002082
2017-09-30,郑健生,个人,A股,1378360,0.60%,新进,--,002082
2017-09-30,单秋娟,个人,A股,14006600,1.62%,不变,--,002083
2017-09-30,孙日贵,个人,A股,12500000,1.44%,不变,--,002083
2017-09-30,韩淑华,个人,A股,8514881,0.98%,新进,--,002083
2017-09-30,庞智辉,个人,A股,2603093,0.64%,38100,1.49%,002084
2017-09-30,计红姣,个人,A股,2500000,0.62%,不变,--,002084
2017-09-30,王育斐,个人,A股,11440127,2.41%,新进,--,002086
2017-09-30,刘洁,个人,A股,7433800,1.56%,-366200,-4.69%,002086
2017-09-30,车轼,个人,A股,4022600,0.85%,不变,--,002086
2017-09-30,张照辉,个人,A股,3200000,0.67%,-5607700,-63.67%,002086
2017-09-30,鹿成滨,个人,A股,12598629,6.02%,不变,--,002088
2017-09-30,高俊昌,个人,A股,3825333,1.83%,不变,--,002088
2017-09-30,毕研海,个人,A股,3669623,1.75%,-16500,-0.45%,002088
2017-09-30,任德凤,个人,A股,3642489,1.74%,不变,--,002088
2017-09-30,张亦斌,个人,A股,62034032,6.65%,46160000,290.79%,002089
2017-09-30,马玲芝,个人,A股,56574962,6.07%,不变,--,002089
2017-09-30,葛宁,个人,A股,3722400,1.80%,不变,--,002090
2017-09-30,郭伟,个人,A股,1772000,0.86%,-228100,-11.40%,002090
2017-09-30,向金凎,个人,A股,1603100,0.77%,333100,26.23%,002090
2017-09-30,高建华,个人,A股,1239702,0.60%,新进,--,002090
2017-09-30,夏鹤良,个人,A股,5500000,0.79%,-854245,-13.44%,002091
2017-09-30,吴贤芳,个人,A股,3408907,0.49%,新进,--,002091
2017-09-30,林惠榕,个人,A股,220653000,26.01%,不变,--,002093
2017-09-30,陈国鹰,个人,A股,217234000,25.61%,不变,--,002093
2017-09-30,林金全,个人,A股,54992258,6.48%,不变,--,002093
2017-09-30,隋榕华,个人,A股,7858128,0.93%,新进,--,002093
2017-09-30,曹栋,个人,A股,4106700,0.48%,-2086135,-33.69%,002093
2017-09-30,苏颜翔,个人,A股,3615054,0.43%,新进,--,002093
2017-09-30,周颖,个人,A股,4705795,1.87%,新进,--,002095
2017-09-30,孙国明,个人,A股,2278488,0.91%,不变,--,002095
2017-09-30,吴林娣,个人,A股,1796843,0.71%,596700,49.72%,002095
2017-09-30,王茜,个人,A股,1392820,0.55%,新进,--,002095
2017-09-30,何光宇,个人,A股,1215400,0.48%,新进,--,002095
2017-09-30,彭丹,个人,A股,5926436,1.60%,新进,--,002096
2017-09-30,董运妙,个人,A股,1206000,0.33%,新进,--,002096
2017-09-30,何清华,个人,A股,50403285,8.35%,不变,--,002097
2017-09-30,缪明义,个人,A股,11036700,1.83%,不变,--,002097
2017-09-30,郭勇,个人,A股,3675230,0.61%,不变,--,002097
2017-09-30,任洁,个人,A股,3574300,0.59%,200,0.01%,002097
2017-09-30,陈晓航,个人,A股,1657900,0.27%,新进,--,002097
2017-09-30,龚进,个人,A股,1464000,0.24%,不变,--,002097
2017-09-30,张宇,个人,A股,5780000,1.86%,不变,--,002098
2017-09-30,朱晖,个人,A股,2746499,0.89%,新进,--,002098
2017-09-30,蒋菊梅,个人,A股,1706800,0.55%,新进,--,002098
2017-09-30,林桂莲,个人,A股,1455600,0.47%,新进,--,002098
2017-09-30,戴佳佳,个人,A股,1369800,0.44%,新进,--,002098
2017-09-30,王云富,个人,A股,118800000,12.65%,不变,--,002099
2017-09-30,叶小青,个人,A股,21984435,2.34%,新进,--,002099
2017-09-30,俞国骅,个人,A股,11085056,1.18%,不变,--,002099
2017-09-30,沈飞萍,个人,A股,10821322,1.15%,新进,--,002099
2017-09-30,朱文涛,个人,A股,43022974,6.06%,不变,--,002100
2017-09-30,周泉,个人,A股,38304500,3.17%,50000,0.13%,002102
2017-09-30,林文洪,个人,A股,18835168,1.56%,不变,--,002102
2017-09-30,王兰花,个人,A股,9486727,0.79%,新进,--,002102
2017-09-30,王利平,个人,A股,19295449,5.93%,不变,--,002103
2017-09-30,王君平,个人,A股,6851947,2.10%,不变,--,002103
2017-09-30,杨燕,个人,A股,6551263,2.01%,不变,--,002103
2017-09-30,蓝歆旻,个人,A股,9970000,1.66%,-5533200,-35.69%,002104
2017-09-30,马晓兰,个人,A股,8387100,1.39%,80000,0.96%,002104
2017-09-30,蔡晓,个人,A股,5653500,0.94%,4010400,244.08%,002104
2017-09-30,钭白冰,个人,A股,2875000,0.48%,新进,--,002104
2017-09-30,白双平,个人,A股,2500000,0.42%,新进,--,002104
2017-09-30,刘营,个人,A股,4863719,1.32%,2340219,92.74%,002105
2017-09-30,黄燕明,个人,A股,1229096,0.33%,110000,9.83%,002105
2017-09-30,张慧琴,个人,A股,1056700,0.29%,31500,3.07%,002105
2017-09-30,成茂源,个人,A股,990000,0.27%,不变,--,002105
2017-09-30,陈能安,个人,A股,981233,0.27%,新进,--,002105
2017-09-30,康辛茹,个人,A股,961609,0.26%,-156800,-14.02%,002105
2017-09-30,伍嘉,个人,A股,898439,0.24%,新进,--,002105
2017-09-30,许金林,个人,A股,8246655,1.17%,4400,0.05%,002106
2017-09-30,万小二,个人,A股,5177767,0.74%,86700,1.70%,002106
2017-09-30,许皓,个人,A股,2994700,0.43%,新进,--,002106
2017-09-30,魏辉末,个人,A股,2442700,0.35%,-7300,-0.30%,002106
2017-09-30,钱微微,个人,A股,2426800,0.34%,6100,0.25%,002106
2017-09-30,毛元松,个人,A股,1973500,0.28%,不变,--,002106
2017-09-30,田开吉,个人,A股,2982600,0.85%,-3000,-0.10%,002107
2017-09-30,刘增,个人,A股,2187300,0.63%,721800,49.25%,002107
2017-09-30,张戈,个人,A股,1571680,0.45%,不变,--,002107
2017-09-30,谢玉玲,个人,A股,1411944,0.40%,新进,--,002107
2017-09-30,赵军,个人,A股,1329209,0.38%,不变,--,002107
2017-09-30,郭宝田,个人,A股,972549,0.28%,新进,--,002107
2017-09-30,张法忠,个人,A股,931077,0.27%,不变,--,002107
2017-09-30,孙文文,个人,A股,874393,0.25%,新进,--,002107
2017-09-30,毛蓉开,个人,A股,852700,0.24%,新进,--,002107
2017-09-30,崔建忠,个人,A股,6176325,0.59%,226495,3.81%,002108
2017-09-30,孔国兴,个人,A股,1490900,0.71%,2400,0.16%,002109
2017-09-30,高建萍,个人,A股,1145100,0.55%,新进,--,002109
2017-09-30,夏子恩,个人,A股,1027300,0.49%,新进,--,002109
2017-09-30,吴旸,个人,A股,1018410,0.48%,不变,--,002109
2017-09-30,吴国际,个人,A股,995000,0.47%,新进,--,002109
2017-09-30,许美玉,个人,A股,934000,0.44%,-6000,-0.64%,002109
2017-09-30,陈创鸿,个人,A股,920000,0.44%,5000,0.55%,002109
2017-09-30,彭永健,个人,A股,867000,0.41%,新进,--,002109
2017-09-30,林东明,个人,A股,843200,0.40%,新进,--,002109
2017-09-30,李光太,个人,A股,13135602,4.61%,不变,--,002111
2017-09-30,陈锦聪,个人,A股,5801400,3.18%,新进,--,002112
2017-09-30,刘建玲,个人,A股,5564921,3.05%,新进,--,002112
2017-09-30,卢旭日,个人,A股,4508338,2.47%,不变,--,002112
2017-09-30,赖淦锋,个人,A股,8845048,1.87%,不变,--,002113
2017-09-30,邵毅珊,个人,A股,3319424,0.70%,不变,--,002113
2017-09-30,丘惠芳,个人,A股,2729000,0.58%,1231500,82.24%,002113
2017-09-30,邓冬梅,个人,A股,2387700,0.50%,28216,1.20%,002113
2017-09-30,张为,个人,A股,2042200,0.43%,新进,--,002113
2017-09-30,李嘉,个人,A股,1410600,0.30%,新进,--,002113
2017-09-30,王全治,个人,A股,500000,0.18%,新进,--,002114
2017-09-30,张筱云,个人,A股,498001,0.18%,新进,--,002114
2017-09-30,李越伦,个人,A股,19863000,5.76%,不变,--,002115
2017-09-30,方海伟,个人,A股,2099904,0.61%,256804,13.93%,002115
2017-09-30,洪革,个人,A股,1994665,0.58%,不变,--,002115
2017-09-30,张英,个人,A股,1802712,0.52%,不变,--,002115
2017-09-30,卢显霞,个人,A股,1625620,0.47%,新进,--,002115
2017-09-30,严国海,个人,A股,1514090,0.44%,不变,--,002115
2017-09-30,朱惠英,个人,A股,973800,0.28%,新进,--,002115
2017-09-30,徐立华,个人,A股,957300,0.28%,新进,--,002115
2017-09-30,应学品,个人,A股,1283083,0.31%,新进,--,002116
2017-09-30,邓美真,个人,A股,1133800,0.27%,100000,9.67%,002116
2017-09-30,张云泉,个人,A股,5271293,1.45%,不变,--,002117
2017-09-30,仲维光,个人,A股,61922552,6.04%,不变,--,002118
2017-09-30,姜淑丽,个人,A股,4343425,0.42%,不变,--,002118
2017-09-30,叶树平,个人,A股,2002800,0.20%,新进,--,002118
2017-09-30,任伟达,个人,A股,13704447,6.79%,7013347,104.82%,002119
2017-09-30,任奇峰,个人,A股,9640068,4.77%,不变,--,002119
2017-09-30,汪福君,个人,A股,5200000,2.58%,不变,--,002119
2017-09-30,崔亚玲,个人,A股,4800000,2.38%,不变,--,002119
2017-09-30,任峰杰,个人,A股,4754969,2.35%,116400,2.51%,002119
2017-09-30,黄新华,个人,A股,33535407,34.42%,新进,--,002120
2017-09-30,孙雪芬,个人,A股,2729468,2.80%,新进,--,002120
2017-09-30,饶陆华,个人,A股,122054225,17.33%,不变,--,002121
2017-09-30,袁继全,个人,A股,12101125,1.72%,不变,--,002121
2017-09-30,阮海明,个人,A股,4903800,0.70%,不变,--,002121
2017-09-30,刘华,个人,A股,4530750,0.64%,新进,--,002121
2017-09-30,李秀清,个人,A股,3578742,0.51%,不变,--,002121
2017-09-30,吕志炎,个人,A股,21748799,1.97%,不变,--,002122
2017-09-30,罗观华,个人,A股,15491000,1.40%,不变,--,002122
2017-09-30,马全法,个人,A股,14668297,1.33%,-3321703,-18.46%,002122
2017-09-30,余文胜,个人,A股,37426850,6.33%,200000,0.54%,002123
2017-09-30,王维珍,个人,A股,7830531,1.33%,-1067400,-12.00%,002123
2017-09-30,吴天星,个人,A股,57058633,14.94%,不变,--,002124
2017-09-30,张邦辉,个人,A股,47825653,12.52%,不变,--,002124
2017-09-30,方海明,个人,A股,7433100,1.95%,不变,--,002124
2017-09-30,陈吉霞,个人,A股,5159552,1.35%,不变,--,002124
2017-09-30,方凤仙,个人,A股,3800000,1.00%,不变,--,002124
2017-09-30,吕莉莉,个人,A股,3100768,0.81%,不变,--,002124
2017-09-30,邱小贞,个人,A股,2965941,1.33%,1300061,78.04%,002125
2017-09-30,蒋如宁,个人,A股,1325400,0.60%,15000,1.14%,002125
2017-09-30,王美芳,个人,A股,826871,0.37%,新进,--,002125
2017-09-30,周中兴,个人,A股,721500,0.32%,新进,--,002125
2017-09-30,陈爱清,个人,A股,678080,0.30%,新进,--,002125
2017-09-30,李彩莲,个人,A股,660320,0.30%,不变,--,002125
2017-09-30,张良,个人,A股,650880,0.29%,不变,--,002125
2017-09-30,林天禄,个人,A股,640300,0.29%,新进,--,002125
2017-09-30,徐小敏,个人,A股,8117704,1.33%,不变,--,002126
2017-09-30,顾振其,个人,A股,6000000,0.98%,-8360,-0.14%,002126
2017-09-30,蒋学明,个人,A股,89900000,9.29%,-30100000,-25.08%,002127
2017-09-30,崔根良,个人,A股,29300000,3.03%,-10701544,-26.75%,002127
2017-09-30,马腾云,个人,A股,16410316,1.03%,新进,--,002128
2017-09-30,孙桂霞,个人,A股,10250451,0.65%,-12417931,-54.78%,002128
2017-09-30,周和平,个人,A股,69987608,7.70%,-7156838,-9.28%,002130
2017-09-30,周文河,个人,A股,12956908,1.43%,不变,--,002130
2017-09-30,刘红娜,个人,A股,4830408,0.53%,不变,--,002130
2017-09-30,耿承昊,个人,A股,3620000,0.40%,不变,--,002130
2017-09-30,王相荣,个人,A股,211615768,6.60%,不变,--,002131
2017-09-30,王壮利,个人,A股,167299112,5.22%,不变,--,002131
2017-09-30,王洪仁,个人,A股,83884164,2.62%,不变,--,002131
2017-09-30,谢保军,个人,A股,182963673,22.01%,不变,--,002132
2017-09-30,焦耀中,个人,A股,40842750,4.91%,不变,--,002132
2017-09-30,谭士泓,个人,A股,36043910,4.34%,不变,--,002132
2017-09-30,黄杏华,个人,A股,18327436,2.20%,11161610,155.76%,002132
2017-09-30,左国友,个人,A股,15676450,1.89%,新进,--,002132
2017-09-30,谢仁国,个人,A股,15024970,1.81%,-3272867,-17.89%,002132
2017-09-30,王鹤鸣,个人,A股,74150737,12.32%,70585,0.10%,002133
2017-09-30,王孝勤,个人,A股,6590000,1.10%,40000,0.61%,002133
2017-09-30,单康康,个人,A股,5270000,0.88%,不变,--,002133
2017-09-30,陈秋琴,个人,A股,4156058,0.69%,不变,--,002133
2017-09-30,葛伟荣,个人,A股,3530000,0.59%,-800000,-18.48%,002133
2017-09-30,郭红奇,个人,A股,3038600,0.50%,3100,0.10%,002133
2017-09-30,葛伟芳,个人,A股,2479600,0.41%,-13000,-0.52%,002133
2017-09-30,苏明,个人,A股,8428405,3.43%,不变,--,002134
2017-09-30,张薇,个人,A股,1479200,0.60%,新进,--,002134
2017-09-30,朱妙玲,个人,A股,1275900,0.52%,不变,--,002134
2017-09-30,陈丽琴,个人,A股,1264500,0.51%,不变,--,002134
2017-09-30,黄兰,个人,A股,1227100,0.50%,新进,--,002134
2017-09-30,黄琦,个人,A股,1146054,0.47%,新进,--,002134
2017-09-30,郭林林,个人,A股,18020000,2.68%,不变,--,002135
2017-09-30,陈传贤,个人,A股,17422168,2.60%,不变,--,002135
2017-09-30,郭明明,个人,A股,12611498,1.88%,不变,--,002135
2017-09-30,殷建木,个人,A股,12000000,1.79%,不变,--,002135
2017-09-30,徐春祥,个人,A股,4500000,0.67%,不变,--,002135
2017-09-30,周观根,个人,A股,4500000,0.67%,不变,--,002135
2017-09-30,汤岳清,个人,A股,2874500,0.43%,新进,--,002135
2017-09-30,何月珍,个人,A股,2271976,0.34%,新进,--,002135
2017-09-30,钱翠屏,个人,A股,9030698,4.23%,不变,--,002136
2017-09-30,夏修晗,个人,A股,3348200,1.57%,2361200,239.23%,002136
2017-09-30,夏多友,个人,A股,1045485,0.49%,新进,--,002136
2017-09-30,李佳晔,个人,A股,998100,0.47%,不变,--,002136
2017-09-30,陈亚妹,个人,A股,55021275,18.93%,不变,--,002137
2017-09-30,乔昕,个人,A股,18731758,6.44%,不变,--,002137
2017-09-30,石磊,个人,A股,7706900,2.65%,-20000,-0.26%,002137
2017-09-30,伏虎,个人,A股,5970000,2.05%,-1100600,-15.57%,002137
2017-09-30,张伟,个人,A股,5643933,1.94%,-674400,-10.67%,002137
2017-09-30,吕旭人,个人,A股,1632100,0.56%,新进,--,002137
2017-09-30,刘佩佩,个人,A股,1129600,0.39%,-364427,-24.39%,002137
2017-09-30,周建,个人,A股,1060200,0.36%,4400,0.42%,002137
2017-09-30,王淑芬,个人,A股,934729,0.32%,新进,--,002137
2017-09-30,全从慧,个人,A股,870000,0.30%,新进,--,002137
2017-09-30,袁金钰,个人,A股,16239800,2.43%,不变,--,002138
2017-09-30,武永强,个人,A股,39501453,7.61%,3116424,8.57%,002139
2017-09-30,谢仁国,个人,A股,15715892,3.03%,-1853000,-10.55%,002139
2017-09-30,李梅兰,个人,A股,5867400,1.13%,-678450,-10.36%,002139
2017-09-30,纪树海,个人,A股,3795524,0.73%,新进,--,002139
2017-09-30,王跃春,个人,A股,1730172,0.39%,-602800,-25.84%,002140
2017-09-30,葛亮,个人,A股,1388200,0.32%,不变,--,002140
2017-09-30,施亚力,个人,A股,1331200,0.30%,新进,--,002140
2017-09-30,萧爱英,个人,A股,5753340,0.90%,不变,--,002141
2017-09-30,林旺钏,个人,A股,3015754,0.47%,不变,--,002141
2017-09-30,张妙仪,个人,A股,2647452,0.42%,不变,--,002141
2017-09-30,任焕伟,个人,A股,2424802,0.38%,不变,--,002141
2017-09-30,肖美华,个人,A股,2233422,0.35%,不变,--,002141
2017-09-30,欧妍红,个人,A股,1827900,0.29%,不变,--,002141
2017-09-30,肖文革,个人,A股,42803200,11.51%,8531200,24.89%,002143
2017-09-30,张彬,个人,A股,12038077,3.24%,4514279,60.00%,002143
2017-09-30,沈国甫,个人,A股,9439809,6.75%,不变,--,002144
2017-09-30,白宁,个人,A股,4350911,3.11%,618200,16.56%,002144
2017-09-30,格日勒,个人,A股,2441115,1.74%,364300,17.54%,002144
2017-09-30,姜龙银,个人,A股,2318900,1.66%,48900,2.15%,002144
2017-09-30,李宏,个人,A股,2282100,1.63%,不变,--,002144
2017-09-30,毛志林,个人,A股,2132250,1.52%,不变,--,002144
2017-09-30,张熙,个人,A股,980000,0.70%,-40000,-3.92%,002144
2017-09-30,马月娟,个人,A股,913456,0.65%,新进,--,002144
2017-09-30,李建锋,个人,A股,114564778,10.53%,不变,--,002145
2017-09-30,张本,个人,A股,22000000,2.02%,-180000,-0.81%,002145
2017-09-30,胡建龙,个人,A股,10592697,0.97%,不变,--,002145
2017-09-30,游国华,个人,A股,5901000,0.54%,不变,--,002145
2017-09-30,陈志恒,个人,A股,5316500,0.49%,1472100,38.29%,002145
2017-09-30,包溢芬,个人,A股,3274000,0.30%,新进,--,002145
2017-09-30,耿建明,个人,A股,138500000,3.56%,不变,--,002146
2017-09-30,吴云,个人,A股,13650000,2.55%,3150000,30.00%,002147
2017-09-30,钱森力,个人,A股,10268270,1.91%,2369601,30.00%,002147
2017-09-30,傅乐民,个人,A股,29903397,6.78%,不变,--,002148
2017-09-30,许建国,个人,A股,5070828,1.15%,不变,--,002148
2017-09-30,彭伟,个人,A股,4710352,1.07%,-786500,-14.31%,002148
2017-09-30,茅贞勇,个人,A股,2379396,0.54%,34900,1.49%,002148
2017-09-30,顾金花,个人,A股,1623360,0.37%,新进,--,002148
2017-09-30,郑淼,个人,A股,1416860,0.32%,新进,--,002148
2017-09-30,朱颖,个人,A股,1225000,0.28%,新进,--,002148
2017-09-30,郑博怀,个人,A股,1191140,0.27%,新进,--,002148
2017-09-30,张玉国,个人,A股,1905748,0.76%,19900,1.06%,002150
2017-09-30,郭骥良,个人,A股,1099764,0.44%,58000,5.57%,002150
2017-09-30,黄海新,个人,A股,1012951,0.40%,新进,--,002150
2017-09-30,任平,个人,A股,964120,0.39%,新进,--,002150
2017-09-30,周儒欣,个人,A股,32739041,14.01%,-10243764,-23.83%,002151
2017-09-30,王海波,个人,A股,3408336,1.46%,-290158,-7.85%,002151
2017-09-30,杨柳,个人,A股,3000000,1.28%,新进,--,002151
2017-09-30,王淑芬,个人,A股,2603900,1.11%,171000,7.03%,002151
2017-09-30,李建辉,个人,A股,2535102,1.09%,不变,--,002151
2017-09-30,钟燕,个人,A股,2116164,0.91%,新进,--,002151
2017-09-30,秦加法,个人,A股,1960000,0.84%,-1020000,-34.23%,002151
2017-09-30,李仲初,个人,A股,146059200,30.15%,不变,--,002153
2017-09-30,焦梅荣,个人,A股,38700720,7.99%,不变,--,002153
2017-09-30,陈国强,个人,A股,9375625,1.94%,不变,--,002153
2017-09-30,吴婷婷,个人,A股,70208696,6.57%,11607758,19.81%,002154
2017-09-30,吴真生,个人,A股,43600932,4.08%,不变,--,002154
2017-09-30,吴志泽,个人,A股,31514026,2.95%,不变,--,002154
2017-09-30,余建隆,个人,A股,29639000,2.77%,不变,--,002154
2017-09-30,叶庆来,个人,A股,10000000,0.94%,不变,--,002154
2017-09-30,赖燕利,个人,A股,9292454,0.87%,新进,--,002154
2017-09-30,夏重阳,个人,A股,8610000,0.81%,-3891100,-31.13%,002154
2017-09-30,叶维琳,个人,A股,5024200,0.47%,1200000,31.38%,002154
2017-09-30,郑建新,个人,A股,5000000,0.47%,不变,--,002154
2017-09-30,林穗贤,个人,A股,11765381,1.18%,431725,3.81%,002155
2017-09-30,梁建业,个人,A股,8615334,0.86%,1858960,27.51%,002155
2017-09-30,欧阳春霖,个人,A股,4780900,0.48%,新进,--,002155
2017-09-30,刘丽琳,个人,A股,4016556,0.40%,不变,--,002155
2017-09-30,李威,个人,A股,5551535,0.57%,新进,--,002156
2017-09-30,齐立,个人,A股,3000000,0.31%,新进,--,002156
2017-09-30,刘道君,个人,A股,44828230,2.40%,不变,--,002157
2017-09-30,陈显荣,个人,A股,9338532,0.50%,868285,10.25%,002157
2017-09-30,胡坤群,个人,A股,2947600,0.56%,新进,--,002158
2017-09-30,吕山洪,个人,A股,2625200,0.49%,新进,--,002158
2017-09-30,苏伟昂,个人,A股,1867200,0.35%,新进,--,002158
2017-09-30,刘颖,个人,A股,957800,0.18%,新进,--,002158
2017-09-30,严宇媛,个人,A股,3577614,2.67%,不变,--,002159
2017-09-30,叶龙华,个人,A股,2939900,2.20%,不变,--,002159
2017-09-30,张平,个人,A股,7638071,1.55%,不变,--,002160
2017-09-30,朱明,个人,A股,6816832,1.39%,新进,--,002160
2017-09-30,兰薇,个人,A股,4690735,0.95%,不变,--,002160
2017-09-30,江建刚,个人,A股,4219833,0.86%,-7107000,-62.74%,002160
2017-09-30,徐玉锁,个人,A股,180426913,25.84%,不变,--,002161
2017-09-30,陈光珠,个人,A股,8716682,1.25%,不变,--,002161
2017-09-30,陈长安,个人,A股,4682440,0.67%,不变,--,002161
2017-09-30,刘存香,个人,A股,2182500,0.31%,-132300,-5.72%,002161
2017-09-30,蔡少芸,个人,A股,2153400,0.31%,新进,--,002161
2017-09-30,徐留胜,个人,A股,2090300,0.30%,新进,--,002161
2017-09-30,陈润嘉,个人,A股,2044381,0.29%,117700,6.11%,002161
2017-09-30,周敏,个人,A股,1698788,0.24%,新进,--,002161
2017-09-30,彭洁芳,个人,A股,10364386,1.22%,10700,0.10%,002162
2017-09-30,王星华,个人,A股,2016500,0.24%,-2100,-0.10%,002162
2017-09-30,陈生平,个人,A股,1354114,0.16%,新进,--,002162
2017-09-30,项杭育,个人,A股,1247700,0.15%,47700,3.98%,002162
2017-09-30,陈田苗,个人,A股,1140200,0.13%,新进,--,002162
2017-09-30,韩平元,个人,A股,12100000,1.51%,不变,--,002163
2017-09-30,汤子花,个人,A股,9772037,1.22%,100000,1.03%,002163
2017-09-30,肖莹颖,个人,A股,9621083,1.20%,92900,0.98%,002163
2017-09-30,肖裕福,个人,A股,9314895,1.16%,不变,--,002163
2017-09-30,牛桂兰,个人,A股,4580000,0.57%,不变,--,002163
2017-09-30,宋济隆,个人,A股,10466000,2.53%,不变,--,002164
2017-09-30,马峰,个人,A股,2300000,0.56%,100000,4.55%,002164
2017-09-30,秦燕芳,个人,A股,1588800,0.38%,不变,--,002164
2017-09-30,周湘龙,个人,A股,1483294,0.36%,新进,--,002164
2017-09-30,柳毅,个人,A股,12680000,2.40%,不变,--,002165
2017-09-30,陆卫东,个人,A股,12380000,2.35%,不变,--,002165
2017-09-30,钟振鑫,个人,A股,5211600,0.99%,200000,3.99%,002165
2017-09-30,陈晓晖,个人,A股,4598700,0.87%,不变,--,002165
2017-09-30,张闻,个人,A股,1897900,0.36%,新进,--,002165
2017-09-30,梁定志,个人,A股,20874447,5.98%,不变,--,002166
2017-09-30,秦本军,个人,A股,19210128,5.50%,不变,--,002166
2017-09-30,蒋小三,个人,A股,13969226,4.00%,1803700,14.83%,002166
2017-09-30,易红石,个人,A股,10139300,2.91%,不变,--,002166
2017-09-30,蒋安明,个人,A股,9304728,2.67%,不变,--,002166
2017-09-30,姚新德,个人,A股,8590411,2.46%,不变,--,002166
2017-09-30,陈兴华,个人,A股,3420000,0.98%,-454399,-11.73%,002166
2017-09-30,陈潮钿,个人,A股,33750000,6.91%,不变,--,002167
2017-09-30,冯建华,个人,A股,11241299,2.30%,7508900,201.18%,002167
2017-09-30,丁湘莹,个人,A股,9748098,2.00%,新进,--,002167
2017-09-30,宋美君,个人,A股,3380000,0.69%,新进,--,002167
2017-09-30,陈兵,个人,A股,3307036,0.68%,-27100,-0.81%,002167
2017-09-30,曹关渔,个人,A股,3002500,0.61%,新进,--,002167
2017-09-30,田赣生,个人,A股,2719500,0.56%,新进,--,002167
2017-09-30,张伟杰,个人,A股,2626275,0.54%,新进,--,002167
2017-09-30,张景华,个人,A股,6500000,0.85%,不变,--,002168
2017-09-30,张利群,个人,A股,6454209,0.84%,不变,--,002168
2017-09-30,马平平,个人,A股,4100000,0.54%,不变,--,002168
2017-09-30,苏军福,个人,A股,4057500,0.53%,不变,--,002168
2017-09-30,庄振鸿,个人,A股,11000000,2.18%,1695916,18.23%,002169
2017-09-30,王卫宏,个人,A股,4693206,0.93%,不变,--,002169
2017-09-30,屠文斌,个人,A股,3773000,0.75%,新进,--,002169
2017-09-30,李敏,个人,A股,3465000,0.69%,新进,--,002169
2017-09-30,李永喜,个人,A股,3310446,0.66%,新进,--,002169
2017-09-30,芮冬阳,个人,A股,3040560,0.60%,新进,--,002169
2017-09-30,胡玉岚,个人,A股,3000000,0.60%,不变,--,002169
2017-09-30,韩文,个人,A股,2542948,0.50%,新进,--,002169
2017-09-30,黄培钊,个人,A股,64481963,9.38%,2868100,4.65%,002170
2017-09-30,黄林华,个人,A股,26924284,3.92%,不变,--,002170
2017-09-30,蒋根青,个人,A股,9638910,1.16%,4819355,100.00%,002171
2017-09-30,卢旭,个人,A股,6380200,0.77%,3445800,117.43%,002171
2017-09-30,邢西明,个人,A股,5508632,0.66%,2754316,100.00%,002171
2017-09-30,姜彬,个人,A股,4000000,0.48%,新进,--,002171
2017-09-30,阮诗宏,个人,A股,4000000,0.48%,新进,--,002171
2017-09-30,袁浩杰,个人,A股,4000000,0.48%,新进,--,002171
2017-09-30,沈卿,个人,A股,17166000,3.07%,不变,--,002172
2017-09-30,张林昌,个人,A股,10765323,1.93%,7766323,258.96%,002172
2017-09-30,迟健,个人,A股,4668775,0.84%,不变,--,002172
2017-09-30,顾宝洪,个人,A股,2905070,0.52%,不变,--,002172
2017-09-30,许滟鑫,个人,A股,2722100,0.49%,新进,--,002172
2017-09-30,郭东涛,个人,A股,2462415,0.44%,新进,--,002172
2017-09-30,陈晓宁,个人,A股,2299170,0.41%,-100200,-4.18%,002172
2017-09-30,陈艳香,个人,A股,2283630,0.41%,不变,--,002172
2017-09-30,陈夏英,个人,A股,77616997,38.26%,不变,--,002173
2017-09-30,陈海军,个人,A股,5775075,2.85%,不变,--,002173
2017-09-30,王献周,个人,A股,2240800,1.10%,431800,23.87%,002173
2017-09-30,孙伯仁,个人,A股,1950338,0.96%,-238400,-10.89%,002173
2017-09-30,吴玉龙,个人,A股,1565900,0.77%,68300,4.56%,002173
2017-09-30,楼来锋,个人,A股,1459550,0.72%,不变,--,002173
2017-09-30,林奇,个人,A股,75648953,13.78%,26148953,52.83%,002174
2017-09-30,王卿伟,个人,A股,35378319,6.45%,不变,--,002174
2017-09-30,王卿泳,个人,A股,32438319,5.91%,不变,--,002174
2017-09-30,李竹,个人,A股,21714655,3.96%,-7300,-0.03%,002174
2017-09-30,朱伟松,个人,A股,13407511,2.44%,不变,--,002174
2017-09-30,谭星,个人,A股,9340811,1.70%,新进,--,002174
2017-09-30,彭朋,个人,A股,23043349,4.35%,235000,1.03%,002175
2017-09-30,李日会,个人,A股,19028559,3.59%,8470000,80.22%,002175
2017-09-30,张弛,个人,A股,12480000,2.35%,不变,--,002175
2017-09-30,王波,个人,A股,5582608,1.05%,新进,--,002175
2017-09-30,俞洪泉,个人,A股,21000000,1.52%,-14550362,-40.93%,002176
2017-09-30,赵银女,个人,A股,7299600,0.53%,-10000,-0.14%,002176
2017-09-30,刘旭春,个人,A股,7049000,0.51%,新进,--,002176
2017-09-30,楼静,个人,A股,6505240,0.47%,新进,--,002176
2017-09-30,杨文江,个人,A股,76372655,12.67%,新进,--,002177
2017-09-30,王林,个人,A股,2048731,0.34%,86431,4.40%,002177
2017-09-30,郑勇,个人,A股,1580000,0.26%,30000,1.94%,002177
2017-09-30,徐茶美,个人,A股,1378000,0.23%,不变,--,002177
2017-09-30,于福波,个人,A股,1275000,0.21%,50000,4.08%,002177
2017-09-30,屠麟,个人,A股,1000000,0.17%,不变,--,002177
2017-09-30,赵青,个人,A股,995750,0.17%,-200000,-16.73%,002177
2017-09-30,徐双进,个人,A股,976800,0.16%,8500,0.88%,002177
2017-09-30,马文军,个人,A股,877067,0.15%,新进,--,002177
2017-09-30,胡黎明,个人,A股,67389136,11.10%,不变,--,002178
2017-09-30,项奇,个人,A股,4169702,0.69%,新进,--,002178
2017-09-30,余云嘉,个人,A股,2321150,0.38%,新进,--,002178
2017-09-30,杜洛超,个人,A股,2235496,0.37%,-282904,-11.23%,002178
2017-09-30,金晓燕,个人,A股,2232660,0.37%,新进,--,002178
2017-09-30,徐杏英,个人,A股,2062216,0.34%,新进,--,002178
2017-09-30,潘美珍,个人,A股,2035928,0.34%,新进,--,002178
2017-09-30,谷文华,个人,A股,2026100,0.33%,新进,--,002178
2017-09-30,陈耀芳,个人,A股,2005100,0.33%,新进,--,002178
2017-09-30,庞江华,个人,A股,19572038,10.15%,不变,--,002180
2017-09-30,黄文礼,个人,A股,12554985,6.51%,-552600,-4.22%,002180
2017-09-30,朱新峰,个人,A股,8105970,4.20%,-288500,-3.44%,002180
2017-09-30,赵宏林,个人,A股,7224009,3.75%,不变,--,002180
2017-09-30,吕勃,个人,A股,4744546,2.46%,不变,--,002180
2017-09-30,欧阳江,个人,A股,4017675,0.35%,-2003358,-33.27%,002181
2017-09-30,范亮亮,个人,A股,3536200,0.31%,新进,--,002181
2017-09-30,李力华,个人,A股,3034759,0.27%,-49725,-1.61%,002181
2017-09-30,凌健,个人,A股,2978315,0.26%,-58400,-1.92%,002181
2017-09-30,刘淑芳,个人,A股,2172040,0.19%,新进,--,002181
2017-09-30,梅小明,个人,A股,51764762,11.48%,不变,--,002182
2017-09-30,孙讯,个人,A股,4995204,1.11%,-42000,-0.83%,002182
2017-09-30,诸天柏,个人,A股,3903640,0.87%,-200000,-4.87%,002182
2017-09-30,余放,个人,A股,2940000,0.65%,-128000,-4.17%,002182
2017-09-30,李锡光,个人,A股,2358200,0.52%,新进,--,002182
2017-09-30,郭红奇,个人,A股,2328498,0.52%,新进,--,002182
2017-09-30,郁卫权,个人,A股,1500000,0.33%,新进,--,002182
2017-09-30,梁文钧,个人,A股,1335900,0.30%,新进,--,002182
2017-09-30,万忠波,个人,A股,19821183,0.94%,8734500,78.78%,002183
2017-09-30,池益慧,个人,A股,8259000,0.39%,不变,--,002183
2017-09-30,张锋,个人,A股,5865936,0.28%,不变,--,002183
2017-09-30,王毅,个人,A股,4038678,0.19%,新进,--,002183
